Board # 1Port # 3
s21 unwrapped phase measurement
"Sun, 18 Sep 2016 21:52:35 +0000"
Freq(Hz),phase0 (Deg),phase1 (Deg),phase2 (Deg),phase3 (Deg),phase4 (Deg),phase5 (Deg),phase6 (Deg),phase7 (Deg),phase8 (Deg),phase9 (Deg),phase10 (Deg),phase11 (Deg),phase12 (Deg),phase13 (Deg),phase14 (Deg),phase15 (Deg)
2000000000.0,-81.05134,-137.5847,-166.4483,174.2975,150.2067,129.1624,105.3035,81.95974,78.17981,58.93613,31.24679,12.02662,-11.80879,-33.07061,-56.77211,-81.00426
2001000000.0,-81.22799,-137.656,-166.5526,174.2657,150.3412,129.1593,105.304,81.95824,77.92834,58.71144,31.16394,11.92996,-11.77092,-33.10074,-56.88988,-81.0935
2002000000.0,-81.08469,-137.7962,-166.4691,174.2064,150.3955,129.3319,105.3794,82.09036,78.05004,58.61739,31.28171,11.98217,-11.82852,-33.06205,-56.84152,-81.07927
2003000000.0,-81.24029,-137.8206,-166.5084,174.2392,150.4634,129.3365,105.2611,82.07442,77.85976,58.5547,31.21605,11.91646,-11.82204,-33.14288,-57.06617,-81.27644
2004000000.0,-81.60569,-138.2847,-166.8366,173.8791,150.068,129.1079,104.9299,81.68579,77.42228,58.13668,30.88716,11.49307,-12.25255,-33.54587,-57.4864,-81.54121
2005000000.0,-82.1356,-138.7287,-167.1115,173.6636,149.7727,128.762,104.6062,81.30248,76.97461,57.72942,30.52372,11.13554,-12.62771,-33.93441,-57.98687,-82.09782
2006000000.0,-82.94599,-139.3788,-167.7003,173.0276,149.0963,128.1997,103.8161,80.60082,76.32214,57.06255,29.84893,10.4752,-13.4758,-34.76017,-58.76682,-82.76188
2007000000.0,-83.45911,-139.9024,-168.0171,172.4979,148.4961,127.5806,103.1147,79.92692,75.79411,56.30088,29.39017,9.981066,-14.22019,-35.30346,-59.63425,-83.45371
2008000000.0,-84.54745,-140.8949,-168.9067,171.6079,147.4636,126.6149,101.9661,78.88831,74.74018,55.30921,28.43092,8.950873,-15.3108,-36.39408,-60.74359,-84.5388
2009000000.0,-85.62918,-141.9091,-169.6771,170.767,146.3995,125.6318,100.9273,77.88065,73.93486,54.47086,27.6219,8.087482,-16.48294,-37.41852,-61.91474,-85.58566
2010000000.0,-86.89973,-142.945,-170.6551,169.8161,145.2755,124.4874,99.60831,76.68365,72.78039,53.32599,26.6161,6.999053,-17.71527,-38.67089,-63.17326,-86.77089
2011000000.0,-87.9886,-144.0263,-171.565,168.8524,144.0212,123.1895,98.35035,75.47401,71.69131,52.25036,25.57797,6.001561,-19.04211,-39.88478,-64.57838,-88.07847
2012000000.0,-89.36555,-145.0907,-172.6579,167.6687,142.7685,121.9613,97.05901,74.15408,70.63055,51.03143,24.52167,4.698946,-20.36655,-41.254,-65.92964,-89.35051
2013000000.0,-90.80066,-146.2146,-173.6528,166.5293,141.3198,120.5383,95.52332,72.89771,69.42799,49.76382,23.29025,3.446943,-21.9094,-42.84765,-67.48,-90.75816
2014000000.0,-91.98104,-147.3492,-174.6964,165.4667,140.0776,119.2267,94.19988,71.6405,68.29327,48.74285,22.33107,2.320406,-23.26169,-44.0274,-68.86967,-91.98737
2015000000.0,-93.35812,-148.4449,-175.6998,164.1603,138.6493,117.911,92.94596,70.39326,67.14202,47.55156,21.18147,1.022245,-24.69475,-45.575,-70.23126,-93.31332
2016000000.0,-94.58031,-149.6035,-176.824,163.08,137.3245,116.651,91.57111,69.13274,66.05146,46.43191,19.92145,-0.144227,-26.05176,-46.90749,-71.61034,-94.6236
2017000000.0,-95.84209,-150.7075,-177.906,161.9686,135.9846,115.3431,90.30009,67.85911,64.99876,45.24545,18.90158,-1.362722,-27.45814,-48.30703,-72.87682,-95.73526
2018000000.0,-96.93016,-151.6489,-178.8705,160.9286,134.9186,114.2674,89.17131,66.85799,64.0068,44.15995,17.86646,-2.463793,-28.67588,-49.39171,-74.03807,-96.87833
2019000000.0,-97.98101,-152.5439,-179.9127,159.8652,133.7815,113.1154,88.08498,65.85326,63.07058,43.2516,16.83105,-3.522003,-29.84192,-50.64782,-75.10324,-97.95417
2020000000.0,-98.90736,-153.1955,-180.6069,159.1532,132.8673,112.2172,87.17889,65.0589,62.19677,42.38661,15.91917,-4.572956,-30.87426,-51.54473,-76.08703,-98.81296
2021000000.0,-99.85886,-154.2467,-181.494,158.2234,131.9733,111.185,86.36959,64.07635,61.23775,41.42646,14.97149,-5.417289,-31.83175,-52.53409,-76.96761,-99.68913
2022000000.0,-100.2276,-154.6786,-181.9741,157.7205,131.4378,110.6091,85.75295,63.63252,60.77494,40.91542,14.44983,-5.965378,-32.44501,-53.18979,-77.63074,-100.2789
2023000000.0,-100.8503,-155.0204,-182.4117,157.2413,130.8501,110.0864,85.50208,63.15047,60.42657,40.41564,13.87378,-6.59362,-33.00703,-53.70079,-77.95754,-100.7678
2024000000.0,-101.0844,-155.437,-182.8917,156.7902,130.4406,109.8676,85.02448,62.73809,59.79947,39.93208,13.345,-7.090436,-33.59331,-54.3081,-78.41708,-101.2359
2025000000.0,-101.6747,-155.8235,-183.2077,156.327,130.0369,109.3892,84.59898,62.41151,59.49525,39.48196,12.82819,-7.63201,-33.97198,-54.57328,-78.77392,-101.4385
2026000000.0,-101.8288,-155.9055,-183.5368,156.1607,129.8367,109.0827,84.59168,62.15247,59.17879,39.28539,12.51362,-7.868731,-34.1829,-54.83421,-78.96078,-101.7569
2027000000.0,-101.6227,-155.8337,-183.6022,156.1851,129.9651,109.1236,84.69602,62.4385,59.16632,39.2655,12.43397,-7.816368,-34.04646,-54.84105,-78.85398,-101.6786
2028000000.0,-101.5922,-155.8513,-183.5168,156.2227,130.1012,109.2857,85.09011,62.5725,59.05427,39.16099,12.49153,-7.899199,-34.02206,-54.75299,-78.70662,-101.5366
2029000000.0,-101.2832,-155.7511,-183.5858,156.2302,130.2671,109.4894,85.22184,62.87744,59.12799,39.28691,12.27132,-7.916306,-33.83125,-54.64876,-78.53796,-101.351
2030000000.0,-101.0982,-155.4787,-183.3406,156.4783,130.6526,109.747,85.74137,63.19151,59.28108,39.47584,12.4502,-7.656978,-33.63731,-54.3598,-78.04465,-100.9774
2031000000.0,-100.5395,-155.0353,-183.1634,156.7814,131.1668,110.2139,86.35786,63.80822,59.66297,39.83546,12.71409,-7.38858,-33.03172,-53.84832,-77.57114,-100.4785
2032000000.0,-99.99698,-154.623,-182.719,157.2751,131.7474,110.849,87.12368,64.54858,60.02223,40.13709,12.96385,-7.05064,-32.51678,-53.38458,-76.92897,-100.0268
2033000000.0,-99.39142,-154.1517,-182.261,157.8054,132.4053,111.5393,87.9374,65.1589,60.21024,40.60355,13.30733,-6.657567,-31.73641,-52.84633,-76.13705,-99.39717
2034000000.0,-98.58202,-153.7095,-181.9581,158.1713,133.2015,112.3793,88.71648,65.98608,60.77278,41.11311,13.62899,-6.055425,-31.06784,-52.10706,-75.39875,-98.67726
2035000000.0,-97.8018,-153.0207,-181.3601,158.8678,134.1812,113.2458,89.70137,66.86744,61.23358,41.64312,14.24879,-5.529988,-30.21864,-51.2194,-74.45473,-97.7462
2036000000.0,-97.38034,-152.6044,-180.916,159.3966,134.8374,113.8618,90.43286,67.55169,61.63645,42.01473,14.57825,-5.019702,-29.45648,-50.54602,-73.82107,-97.28104
2037000000.0,-96.71561,-152.1521,-180.498,159.9004,135.5775,114.667,91.18854,68.20702,61.90122,42.42369,15.09777,-4.61867,-28.80695,-49.82038,-73.12617,-96.76215
2038000000.0,-96.07435,-151.6094,-179.9675,160.4742,136.5386,115.5748,91.96886,68.85982,62.44959,42.87128,15.45029,-3.941724,-28.11189,-49.12476,-72.33624,-96.00754
2039000000.0,-95.29623,-151.1522,-179.3857,161.1838,137.3707,116.3862,92.86009,69.66428,62.90575,43.34783,15.93709,-3.454121,-27.15351,-48.36791,-71.52117,-95.28284
2040000000.0,-94.9772,-150.8434,-179.1019,161.4701,137.8753,116.9245,93.35206,70.07227,63.0413,43.51519,16.24126,-3.033869,-26.61778,-47.86296,-71.04255,-94.9368
2041000000.0,-94.40914,-150.3314,-178.5302,162.0337,138.6168,117.5246,94.06929,70.78473,63.46278,44.11647,16.813,-2.558265,-26.02471,-47.36132,-70.54808,-94.38202
2042000000.0,-94.27483,-150.2186,-178.3516,162.2451,139.0282,117.8366,94.44675,70.95463,63.62069,44.11551,16.87669,-2.405863,-25.76088,-47.00328,-70.22459,-94.14806
2043000000.0,-94.03258,-150.2063,-178.2784,162.58,139.2266,118.1543,94.49218,71.16846,63.48309,44.14803,16.94788,-2.351139,-25.54825,-46.82542,-70.16095,-94.01913
2044000000.0,-94.02248,-150.1789,-178.2101,162.494,139.2341,118.3121,94.57206,71.19493,63.4483,44.00217,16.95702,-2.364922,-25.45885,-46.82433,-70.13024,-93.96382
2045000000.0,-94.0859,-150.474,-178.33,162.4021,139.2192,118.2817,94.54153,71.12595,63.40446,43.85388,16.83451,-2.378989,-25.66825,-46.8335,-70.31363,-94.24587
2046000000.0,-94.39534,-150.643,-178.4538,162.3695,139.1347,118.13,94.34863,70.99685,63.13205,43.7268,16.73516,-2.62003,-25.79614,-47.0563,-70.64116,-94.39881
2047000000.0,-94.80992,-150.9817,-178.8006,161.8392,138.8542,117.8429,94.01575,70.53261,62.59991,43.22837,16.39045,-2.966552,-26.36151,-47.47482,-71.14392,-94.89285
2048000000.0,-95.3215,-151.5379,-179.0169,161.5131,138.3404,117.4829,93.45095,70.14827,62.1608,42.63982,15.98665,-3.394196,-26.75696,-47.90048,-71.69212,-95.30982
2049000000.0,-96.16064,-152.2799,-179.7191,160.9418,137.6847,116.7865,92.76289,69.35571,61.39008,41.90313,15.30933,-4.046233,-27.63327,-48.7247,-72.63182,-96.19298
2050000000.0,-97.06841,-152.9793,-180.2725,160.1591,136.9052,115.9992,91.70953,68.54279,60.68764,41.13335,14.59032,-4.862607,-28.46973,-49.63169,-73.46395,-97.02702
2051000000.0,-98.02564,-153.7652,-180.9427,159.4355,135.9885,115.0558,90.75832,67.55682,59.90723,40.33683,13.94394,-5.608617,-29.54892,-50.42514,-74.50379,-97.92695
2052000000.0,-99.0181,-154.6651,-181.6912,158.767,134.902,114.206,89.66029,66.54379,59.03904,39.29657,13.07232,-6.532845,-30.57988,-51.54086,-75.67029,-98.99709
2053000000.0,-100.1523,-155.6926,-182.649,157.7342,133.7279,112.9517,88.31545,65.31273,57.9341,38.22015,12.08085,-7.504259,-31.7707,-52.7312,-76.90434,-100.2759
2054000000.0,-101.4584,-156.8541,-183.5956,156.5708,132.4397,111.7507,86.91934,64.12541,56.84697,37.05163,10.98075,-8.711406,-33.21725,-54.21579,-78.39687,-101.556
2055000000.0,-102.8161,-157.7904,-184.5981,155.6289,131.1431,110.4416,85.64146,62.88281,55.77503,36.02393,10.08615,-9.908788,-34.44306,-55.41344,-79.69714,-102.814
2056000000.0,-103.8871,-158.7327,-185.2887,154.6879,130.0119,109.3285,84.38625,61.74057,54.91973,35.06098,9.206522,-10.83116,-35.70782,-56.56479,-80.96246,-104.0393
2057000000.0,-105.2684,-159.7928,-186.2647,153.5335,128.6495,108.0508,83.18376,60.52329,53.77349,33.93148,8.069555,-11.97602,-37.0699,-57.83821,-82.32601,-105.2179
2058000000.0,-106.5809,-160.8175,-187.4562,152.4021,127.265,106.5655,81.8627,59.17737,52.74072,32.73632,6.942985,-13.22031,-38.56648,-59.41476,-83.82408,-106.5382
2059000000.0,-107.7443,-161.9399,-188.5157,151.3829,125.9947,105.3631,80.47579,57.9992,51.63027,31.7265,5.912047,-14.4411,-39.81264,-60.71488,-85.08308,-107.7296
2060000000.0,-108.6775,-162.6775,-189.3402,150.4342,124.9952,104.3295,79.50121,57.16241,50.88535,30.88066,4.969972,-15.39507,-40.96102,-61.76001,-86.17515,-108.6645
2061000000.0,-110.0831,-163.9212,-190.4749,149.1922,123.6212,103.0129,78.21275,55.95455,49.58347,29.66013,3.820512,-16.63728,-42.47449,-63.15629,-87.45174,-109.9924
2062000000.0,-110.8512,-164.5148,-191.1734,148.4873,122.825,102.2126,77.41668,55.21479,48.96119,28.98663,3.058156,-17.32019,-43.22851,-64.02319,-88.26941,-110.6668
2063000000.0,-111.6662,-165.2293,-191.9601,147.6086,121.8091,101.2798,76.54675,54.23617,48.14983,28.22799,2.15693,-18.28303,-44.33769,-64.99076,-89.16905,-111.6039
2064000000.0,-112.3458,-165.9468,-192.5812,146.9767,121.1207,100.4729,75.92603,53.71419,47.41951,27.40307,1.472499,-19.04755,-45.08094,-65.71206,-90.08069,-112.3199
2065000000.0,-112.9855,-166.5771,-193.2017,146.3282,120.4787,99.87635,75.24994,53.00447,46.76723,26.86463,0.7508038,-19.68133,-45.85142,-66.48941,-90.66441,-112.9402
2066000000.0,-113.466,-166.9085,-193.7069,145.8574,119.866,99.31737,74.7742,52.65727,46.2748,26.20278,0.2779701,-20.27477,-46.33006,-67.02495,-91.08337,-113.4918
2067000000.0,-113.7779,-167.1836,-193.9725,145.4453,119.6481,98.88496,74.53108,52.32321,46.04829,26.02053,-0.07401849,-20.57199,-46.63098,-67.36904,-91.38345,-113.7626
2068000000.0,-114.0975,-167.5628,-194.3828,145.1788,119.2211,98.55422,74.19605,52.05082,45.48697,25.59052,-0.5625436,-21.00686,-47.03865,-67.67477,-91.6523,-114.1376
2069000000.0,-114.1941,-167.6042,-194.6016,144.9767,119.2222,98.55441,74.26364,52.00169,45.49157,25.46115,-0.753058,-21.20787,-47.18194,-67.83574,-91.70038,-114.1057
2070000000.0,-114.1513,-167.5923,-194.6522,144.9117,119.3509,98.63534,74.39534,52.17244,45.36046,25.44241,-0.8991629,-21.30136,-47.1871,-67.84188,-91.6124,-114.0815
2071000000.0,-114.0635,-167.5522,-194.7245,144.8782,119.3461,98.70006,74.59454,52.29352,45.24506,25.3008,-1.023407,-21.42994,-47.12096,-67.90314,-91.51737,-113.9671
2072000000.0,-113.8691,-167.3885,-194.6259,145.0784,119.5842,98.94721,74.91756,52.60395,45.28136,25.42515,-0.9677263,-21.30944,-46.87399,-67.65025,-91.206,-113.7799
2073000000.0,-113.5265,-167.1833,-194.5276,145.2328,119.8944,99.16556,75.44528,53.02089,45.5168,25.67994,-1.072944,-21.1409,-46.5779,-67.39288,-90.82251,-113.3835
2074000000.0,-113.1203,-166.8453,-194.335,145.5377,120.4061,99.73063,75.89355,53.39836,45.62588,25.81908,-0.7146085,-20.91318,-46.19527,-67.00646,-90.27422,-113.0252
2075000000.0,-112.5167,-166.4956,-193.9696,145.9344,120.9366,100.2526,76.57257,54.12904,46.06062,26.29894,-0.5909809,-20.71449,-45.55914,-66.47996,-89.64512,-112.4468
2076000000.0,-111.8109,-165.9872,-193.5226,146.4205,121.716,100.9751,77.49541,54.85003,46.46598,26.67126,-0.1811634,-20.12961,-44.94381,-65.73383,-88.83283,-111.8038
2077000000.0,-111.0278,-165.4523,-193.1037,147.0349,122.5962,101.7934,78.42714,55.58401,46.80748,27.15778,0.2953195,-19.6785,-44.03819,-64.96039,-88.05034,-110.9939
2078000000.0,-110.4884,-165.0665,-192.763,147.4643,123.326,102.5151,79.00635,56.32475,47.17352,27.55297,0.6277176,-19.22286,-43.51715,-64.41247,-87.31904,-110.465
2079000000.0,-110.0054,-164.697,-192.4392,147.8565,123.8565,103.0066,79.89559,56.80949,47.49572,27.82139,0.8225902,-18.82237,-42.80205,-63.89452,-86.71394,-109.8749
2080000000.0,-109.297,-164.1433,-191.904,148.4635,124.9937,103.9531,80.70578,57.59402,47.97793,28.3037,1.31698,-18.22685,-42.1274,-63.12741,-85.83,-109.2333
2081000000.0,-108.7508,-163.7355,-191.4871,148.8834,125.4441,104.5676,81.32301,58.18961,48.18513,28.63686,1.65651,-17.91529,-41.43864,-62.35416,-85.27944,-108.6613
2082000000.0,-108.0739,-163.3983,-190.97,149.4169,126.4385,105.4083,82.05328,58.75844,48.66383,29.01321,2.087305,-17.35632,-40.63554,-61.65891,-84.60149,-108.1039
2083000000.0,-107.7433,-163.0474,-190.7537,149.8919,126.8334,105.8461,82.58905,59.2991,48.78461,29.22248,2.324137,-17.08742,-40.09473,-61.27002,-84.18134,-107.762
2084000000.0,-107.2723,-162.7491,-190.3156,150.1899,127.5279,106.473,83.04793,59.88829,49.07771,29.58431,2.677138,-16.59305,-39.67092,-60.77754,-83.59735,-107.2511
2085000000.0,-107.1586,-162.5707,-190.2092,150.4039,127.8528,106.8393,83.38338,59.95445,49.05381,29.51977,2.785479,-16.51675,-39.35159,-60.4747,-83.42027,-107.0581
2086000000.0,-107.1722,-162.6826,-190.2132,150.5167,127.9297,106.8997,83.40936,59.96355,49.1031,29.48065,2.738253,-16.5787,-39.27835,-60.39955,-83.41166,-107.1209
2087000000.0,-107.1682,-162.7971,-190.1078,150.4068,127.9554,107.0661,83.38377,60.09583,48.84061,29.34075,2.780992,-16.54107,-39.31809,-60.44526,-83.47342,-107.2441
2088000000.0,-107.2852,-162.8027,-190.1897,150.4155,128.0643,107.1088,83.45992,60.01926,48.85413,29.26315,2.644498,-16.52905,-39.31968,-60.38292,-83.55016,-107.2413
2089000000.0,-107.5647,-163.1642,-190.2677,150.2578,127.7793,106.7613,83.16778,59.68982,48.42822,28.91589,2.449753,-16.89597,-39.52689,-60.71848,-83.96218,-107.5013
2090000000.0,-108.059,-163.5883,-190.7483,149.917,127.4102,106.4961,82.74641,59.28334,48.00055,28.44798,2.083557,-17.31747,-39.98191,-61.13481,-84.41924,-107.9736
2091000000.0,-108.7065,-164.2602,-191.11,149.3951,126.8667,105.9237,82.0293,58.73761,47.43026,27.86592,1.592956,-17.87949,-40.74762,-61.71567,-85.08222,-108.6708
2092000000.0,-109.3851,-164.7669,-191.5746,149.0221,126.0954,105.3549,81.34211,58.03713,46.80518,27.18087,1.032253,-18.42037,-41.46325,-62.36842,-85.91515,-109.374
2093000000.0,-110.0676,-165.3902,-192.065,148.4855,125.5991,104.7678,80.54942,57.34703,46.27856,26.53832,0.6814817,-19.01741,-42.15521,-63.11576,-86.71904,-110.063
2094000000.0,-110.9333,-166.2222,-192.8306,147.6257,124.6085,103.8895,79.51559,56.39329,45.43125,25.65634,-0.1341431,-19.78511,-43.10403,-63.93709,-87.73785,-111.085
2095000000.0,-112.1978,-167.1124,-193.5579,146.7036,123.5454,102.7056,78.29279,55.3396,44.47453,24.65107,-1.022847,-20.78947,-44.34072,-65.04065,-88.93623,-112.0906
2096000000.0,-113.2991,-168.0875,-194.2935,145.8166,122.4388,101.7812,77.18624,54.25719,43.53078,23.67136,-1.876127,-21.70687,-45.38564,-66.24212,-90.27288,-113.3515
2097000000.0,-114.4324,-168.9971,-195.0186,144.9249,121.3308,100.6697,76.08736,53.1482,42.68511,22.8818,-2.627137,-22.56958,-46.514,-67.37053,-91.48853,-114.3135
2098000000.0,-115.4869,-169.7413,-196.011,144.1011,120.2366,99.58273,74.84206,52.09209,41.75576,21.87677,-3.507586,-23.57254,-47.7066,-68.45538,-92.60738,-115.4487
2099000000.0,-116.5727,-170.7833,-196.8569,143.1357,118.9923,98.3384,73.57884,51.04407,40.67951,20.81377,-4.484101,-24.56728,-49.06776,-69.804,-93.82508,-116.6973
2100000000.0,-117.9392,-171.8009,-197.8076,142.0929,117.7915,97.06275,72.29244,49.70925,39.71355,19.76054,-5.537424,-25.59902,-50.36378,-71.08008,-95.27229,-117.9536
2101000000.0,-119.1261,-172.7244,-198.7475,141.1193,116.4777,95.88433,71.04986,48.63048,38.84126,18.84012,-6.468581,-26.74904,-51.55681,-72.32919,-96.45054,-119.0887
2102000000.0,-120.3318,-173.682,-199.6899,140.0242,115.3374,94.61946,69.92255,47.55313,37.75627,17.80489,-7.442829,-27.89645,-52.97638,-73.55999,-97.80574,-120.1782
2103000000.0,-121.2311,-174.5358,-200.4131,139.1512,114.3006,93.76198,68.96631,46.5975,36.93676,17.03287,-8.307215,-28.71555,-54.01651,-74.60632,-98.76031,-121.2416
2104000000.0,-122.0791,-175.3123,-201.2246,138.3944,113.3528,92.77393,67.97395,45.72678,36.14904,16.08219,-9.13096,-29.68513,-55.05706,-75.57211,-99.71857,-122.108
2105000000.0,-123.0799,-176.0852,-202.1625,137.3327,112.1655,91.68606,67.04749,44.8338,35.21162,15.24871,-10.11125,-30.64952,-56.19815,-76.74973,-100.8792,-123.1576
2106000000.0,-123.6978,-176.6647,-202.6988,136.8297,111.5165,91.07162,66.35066,44.19772,34.79259,14.77539,-10.78309,-31.19419,-56.91719,-77.4071,-101.3926,-123.6662
2107000000.0,-124.4152,-177.3141,-203.447,136.1525,110.7605,90.25103,65.69267,43.57134,34.08925,13.95568,-11.51255,-32.00079,-57.61022,-78.22246,-102.1741,-124.4525
2108000000.0,-124.8952,-177.7012,-203.7689,135.6327,110.3851,89.78135,65.27917,43.21364,33.65805,13.58172,-11.79018,-32.49331,-58.22359,-78.68435,-102.6512,-124.8754
2109000000.0,-125.4972,-178.2103,-204.4358,135.0588,109.6376,89.05341,64.72194,42.53915,33.0434,13.01045,-12.73172,-33.19706,-58.80195,-79.51295,-103.2181,-125.4896
2110000000.0,-125.8494,-178.5496,-204.6951,134.7465,109.4659,88.81587,64.413,42.34771,32.67202,12.70307,-12.9869,-33.5155,-59.29319,-79.69653,-103.5833,-125.7391
2111000000.0,-126.0057,-178.7012,-205.1565,134.4367,109.0192,88.52692,64.29074,42.17914,32.46421,12.40376,-13.25369,-33.84919,-59.52954,-80.09762,-103.8435,-125.9494
2112000000.0,-126.1804,-178.9092,-205.249,134.32,108.956,88.41131,64.24077,42.0379,32.22988,12.151,-13.54325,-34.03222,-59.68076,-80.18025,-103.7577,-126.1238
2113000000.0,-126.1018,-178.8588,-205.3997,134.2183,109.0762,88.35603,64.36701,42.07389,32.11361,12.14283,-13.70656,-34.132,-59.81524,-80.21607,-103.738,-126.1059
2114000000.0,-126.0581,-178.87,-205.4837,134.0705,109.2288,88.43224,64.52927,42.23912,32.06445,12.20309,-13.8113,-34.31138,-59.6916,-80.29948,-103.6829,-126.0981
2115000000.0,-125.7203,-178.6385,-205.3909,134.371,109.4509,88.68701,64.96263,42.54047,32.14415,12.33222,-13.84159,-34.12177,-59.39031,-80.03854,-103.2718,-125.75
2116000000.0,-125.5346,-178.521,-205.2894,134.3244,109.6449,88.85503,65.17702,42.80901,32.17415,12.29532,-14.00203,-34.09333,-59.30051,-79.89851,-102.9967,-125.5566
2117000000.0,-125.0049,-178.201,-205.0315,134.851,110.2416,89.44804,65.90668,43.44123,32.4447,12.65382,-13.64261,-33.85342,-58.78638,-79.37949,-102.4558,-125.0054
2118000000.0,-124.6479,-177.8983,-204.9345,134.9914,110.6304,89.79182,66.52127,43.81559,32.64701,12.93527,-13.54867,-33.57457,-58.39967,-79.07085,-101.9616,-124.5856
2119000000.0,-124.0354,-177.5922,-204.433,135.393,111.423,90.6046,67.23502,44.52903,33.01693,13.23448,-13.17653,-33.10276,-57.74068,-78.35983,-101.3169,-123.9692
