Board # 1Port # 4
s21 unwrapped phase measurement
"Sun, 18 Sep 2016 22:00:22 +0000"
Freq(Hz),phase0 (Deg),phase1 (Deg),phase2 (Deg),phase3 (Deg),phase4 (Deg),phase5 (Deg),phase6 (Deg),phase7 (Deg),phase8 (Deg),phase9 (Deg),phase10 (Deg),phase11 (Deg),phase12 (Deg),phase13 (Deg),phase14 (Deg),phase15 (Deg)
2000000000.0,-119.9727,-139.5953,-167.9608,172.336,147.7885,126.693,102.7632,79.63912,76.22948,56.66068,29.22561,9.617328,-14.82021,-36.00058,-59.53855,-83.56261
2001000000.0,-120.1202,-139.6559,-168.0793,172.2468,147.8312,126.7788,102.8007,79.64249,75.97727,56.60278,29.27514,9.533089,-14.90404,-35.98029,-59.61089,-83.60947
2002000000.0,-120.0658,-139.7064,-167.9373,172.3575,147.8684,126.9706,102.9592,79.77239,75.98797,56.55372,29.30075,9.610579,-14.75949,-35.88177,-59.63196,-83.68393
2003000000.0,-120.046,-139.7191,-167.9315,172.3986,147.9482,126.9677,102.8251,79.71671,75.91827,56.44272,29.25255,9.633979,-14.84662,-36.00662,-59.74882,-83.68262
2004000000.0,-120.4552,-140.0139,-168.1632,172.1468,147.6451,126.782,102.5554,79.46769,75.62717,56.03091,29.01289,9.253076,-15.09564,-36.31438,-60.18671,-84.03923
2005000000.0,-120.698,-140.3649,-168.3903,171.8528,147.4036,126.5228,102.1268,79.15495,75.17255,55.7797,28.78984,8.94497,-15.60744,-36.68922,-60.58836,-84.42713
2006000000.0,-121.3169,-140.9991,-168.8623,171.4265,146.7672,125.9428,101.4209,78.43938,74.65171,55.1207,28.2345,8.392008,-16.16778,-37.28044,-61.34727,-85.14037
2007000000.0,-121.656,-141.4558,-169.2613,171.0388,146.3527,125.5181,100.9526,77.96332,74.12363,54.64892,27.82887,7.982216,-16.87367,-37.82917,-62.00045,-85.72976
2008000000.0,-122.5395,-142.3544,-169.8803,170.2017,145.3246,124.5158,99.87949,77.01688,73.29936,53.68875,27.02519,7.133042,-17.89717,-38.85952,-63.11045,-86.5894
2009000000.0,-123.3059,-143.0386,-170.5596,169.4054,144.5872,123.6623,98.85625,76.07626,72.49586,52.92616,26.26846,6.324986,-18.96564,-39.86596,-64.21383,-87.60834
2010000000.0,-124.2219,-144.0908,-171.3718,168.6337,143.4248,122.5722,97.67268,74.97208,71.58086,51.88955,25.41477,5.301899,-20.09589,-40.95131,-65.40422,-88.67773
2011000000.0,-125.217,-144.981,-172.1356,167.6311,142.2021,121.5125,96.55206,73.87695,70.62004,50.94952,24.56931,4.346532,-21.35573,-42.06218,-66.64197,-89.87782
2012000000.0,-126.1545,-145.915,-173.1435,166.7262,140.9382,120.3019,95.17371,72.64968,69.72903,49.91859,23.69261,3.378058,-22.61475,-43.31347,-67.96819,-91.08683
2013000000.0,-127.2337,-147.0822,-174.0732,165.661,139.7006,119.0353,93.80696,71.46009,68.49898,48.71889,22.64935,2.11757,-23.91481,-44.71633,-69.32355,-92.40663
2014000000.0,-128.0415,-147.9615,-174.9116,164.7144,138.5345,117.8621,92.75081,70.37407,67.67464,47.77508,21.69999,1.123775,-25.2997,-46.0463,-70.56281,-93.50863
2015000000.0,-129.0828,-148.981,-175.8153,163.5616,137.187,116.5101,91.40498,69.16122,66.49892,46.70331,20.54208,-0.0624584,-26.68044,-47.36506,-71.97379,-94.76052
2016000000.0,-130.0145,-150.0178,-176.9743,162.4617,135.8468,115.3733,90.19225,68.05838,65.53048,45.53047,19.57758,-1.104867,-28.0149,-48.57733,-73.33131,-95.97369
2017000000.0,-131.0701,-151.0432,-177.9939,161.4688,134.6413,114.0148,88.9628,66.89062,64.50648,44.46266,18.48678,-2.395766,-29.2284,-50.01643,-74.49366,-97.05379
2018000000.0,-131.9051,-151.8665,-178.726,160.5066,133.5309,113.0034,87.91869,65.94478,63.6501,43.6797,17.58973,-3.417328,-30.46371,-51.01201,-75.58318,-98.15677
2019000000.0,-132.7993,-152.8128,-179.8427,159.4306,132.4323,111.8286,86.95172,64.93467,62.66422,42.7339,16.47463,-4.386349,-31.6331,-52.09266,-76.69879,-99.03517
2020000000.0,-133.5644,-153.5207,-180.501,158.7293,131.498,111.0173,86.0278,64.07944,61.96438,41.74152,15.64705,-5.27715,-32.57487,-53.19659,-77.49443,-99.94236
2021000000.0,-134.3874,-154.4324,-181.3644,157.7507,130.61,110.0249,85.1398,63.29918,61.05309,40.96518,14.69715,-6.254107,-33.654,-54.12089,-78.503,-100.8299
2022000000.0,-134.7725,-154.8777,-181.9129,157.2653,129.9772,109.5368,84.6211,62.83504,60.54459,40.45733,14.09543,-6.798599,-34.19529,-54.64159,-78.97457,-101.4345
2023000000.0,-135.2507,-155.2531,-182.3852,156.7914,129.5998,109.0021,84.19663,62.34445,60.02595,39.97871,13.53953,-7.342705,-34.69154,-55.25653,-79.4585,-101.8557
2024000000.0,-135.74,-155.7519,-182.7929,156.2793,129.1305,108.4956,83.86835,61.86657,59.52522,39.42968,12.92525,-7.976264,-35.25788,-55.78552,-79.8912,-102.375
2025000000.0,-136.1723,-156.1573,-183.2046,155.8458,128.6341,108.0499,83.5872,61.57603,59.00636,38.99678,12.45042,-8.532501,-35.70013,-56.27141,-80.34508,-102.7193
2026000000.0,-136.3629,-156.3291,-183.617,155.5778,128.4425,107.814,83.42803,61.43939,58.6767,38.67381,12.07226,-8.74996,-35.93422,-56.50023,-80.51952,-102.9475
2027000000.0,-136.4407,-156.3308,-183.7901,155.528,128.4377,107.8493,83.50809,61.48113,58.67094,38.64901,11.94393,-8.948024,-36.00062,-56.57487,-80.47005,-102.8932
2028000000.0,-136.468,-156.4069,-183.9165,155.4198,128.5341,107.9442,83.79353,61.5223,58.4705,38.41978,11.73152,-9.094436,-35.97238,-56.5746,-80.32829,-102.8626
2029000000.0,-136.4002,-156.3654,-183.8587,155.4571,128.6663,107.9907,83.8985,61.72866,58.49201,38.44479,11.56801,-8.991905,-35.78965,-56.44799,-80.18851,-102.6789
2030000000.0,-136.3904,-156.1291,-183.8638,155.4671,128.9856,108.2264,84.35645,62.05305,58.52357,38.55572,11.61302,-9.028673,-35.7025,-56.27214,-79.85711,-102.5169
2031000000.0,-136.067,-155.9012,-183.8288,155.7868,129.4147,108.6625,84.85382,62.49041,58.57399,38.74184,11.71555,-8.80768,-35.22507,-55.848,-79.37086,-102.1505
2032000000.0,-135.8698,-155.5689,-183.5333,156.058,129.9333,109.2113,85.43822,63.07318,58.92178,39.04349,11.93229,-8.660398,-34.75421,-55.37117,-78.70585,-101.6416
2033000000.0,-135.3794,-155.2018,-183.2487,156.3949,130.4541,109.7995,86.11721,63.64385,59.16818,39.20626,12.10779,-8.279556,-34.16957,-54.96331,-78.2216,-101.1966
2034000000.0,-134.9855,-154.7986,-182.8147,156.8775,131.2274,110.5109,86.90637,64.31311,59.46083,39.72283,12.51339,-7.808144,-33.34879,-54.22491,-77.43156,-100.4828
2035000000.0,-134.4636,-154.2608,-182.299,157.4563,132.1469,111.3721,87.78604,65.10789,59.92668,40.03274,12.76287,-7.355621,-32.68284,-53.44227,-76.62186,-99.84915
2036000000.0,-134.2124,-153.9711,-182.1721,157.81,132.6645,111.9547,88.4486,65.61111,60.09961,40.39136,13.10681,-7.000412,-32.11432,-52.91463,-76.03407,-99.3938
2037000000.0,-133.9141,-153.5725,-181.6947,158.2542,133.5005,112.6072,89.16514,66.24462,60.43515,40.66221,13.35777,-6.574469,-31.43838,-52.32978,-75.49536,-98.8674
2038000000.0,-133.4828,-153.0913,-181.3089,158.765,134.2668,113.3135,89.89254,66.86659,60.79902,41.13147,13.81474,-6.086403,-30.58707,-51.57124,-74.65894,-98.20026
2039000000.0,-133.1564,-152.6367,-180.864,159.3205,135.095,114.134,90.61359,67.64238,61.1254,41.40257,14.23438,-5.517554,-29.91296,-50.97607,-74.05135,-97.58289
2040000000.0,-132.8374,-152.4769,-180.6404,159.7503,135.5595,114.5928,91.21217,68.0334,61.23943,41.64579,14.38827,-5.324478,-29.55594,-50.531,-73.53969,-97.18977
2041000000.0,-132.4723,-152.0634,-180.1983,160.2621,136.2558,115.3121,91.78775,68.59163,61.67338,42.01675,14.89947,-4.772181,-28.81775,-49.90017,-73.0643,-96.82423
2042000000.0,-132.3558,-151.9232,-179.9582,160.5094,136.596,115.6164,92.0593,68.72513,61.60174,42.06116,14.95409,-4.515173,-28.6607,-49.63505,-72.88037,-96.58894
2043000000.0,-132.4095,-151.8547,-179.877,160.6085,136.8306,115.8123,92.2305,68.88366,61.70599,42.10072,15.07784,-4.488406,-28.34387,-49.42838,-72.77227,-96.53031
2044000000.0,-132.4076,-151.9752,-179.8466,160.6716,136.7749,115.9564,92.28931,68.87642,61.51471,41.97699,15.02977,-4.504971,-28.35188,-49.40242,-72.85453,-96.45947
2045000000.0,-132.5042,-152.0774,-179.7905,160.5888,136.9782,116.0236,92.14919,69.0542,61.50245,41.82044,15.01278,-4.657279,-28.48929,-49.47448,-72.92182,-96.61063
2046000000.0,-132.5492,-152.1837,-179.805,160.5521,136.8189,115.9984,92.08578,68.75095,61.24137,41.71016,14.94439,-4.716702,-28.64094,-49.57272,-73.17234,-96.75594
2047000000.0,-132.915,-152.6138,-180.0885,160.3289,136.4077,115.6248,91.61658,68.41418,60.82057,41.2784,14.62634,-4.950336,-28.98161,-49.98242,-73.58857,-97.03865
2048000000.0,-133.2667,-152.9546,-180.2435,160.0133,136.1236,115.3527,91.30127,68.03577,60.5899,40.99064,14.37457,-5.297542,-29.4075,-50.28463,-74.13467,-97.60719
2049000000.0,-133.8687,-153.6618,-180.8198,159.5093,135.4461,114.7382,90.57127,67.3203,59.92666,40.24285,13.90419,-5.830812,-30.131,-51.06308,-74.88731,-98.33803
2050000000.0,-134.502,-154.334,-181.2635,158.8632,134.7165,114.0875,89.74043,66.74876,59.32742,39.54323,13.27152,-6.469972,-30.89989,-51.88448,-75.71711,-99.11812
2051000000.0,-135.0856,-154.9332,-181.8409,158.228,133.9484,113.2608,88.77953,65.86527,58.62209,38.85942,12.79864,-7.238291,-31.84098,-52.60336,-76.68374,-99.89745
2052000000.0,-135.8869,-155.6767,-182.46,157.519,133.1681,112.4386,87.79949,64.91336,57.75705,38.02015,12.01,-7.945027,-32.7874,-53.53095,-77.73177,-100.8237
2053000000.0,-136.7464,-156.5701,-183.2438,156.7399,131.9652,111.3552,86.56808,63.88399,56.90953,37.12742,11.14775,-8.957804,-34.00724,-54.68379,-78.95087,-101.9998
2054000000.0,-137.6926,-157.53,-184.0729,155.67,130.7362,110.0715,85.29794,62.64046,55.96523,36.03351,10.13995,-9.974696,-35.30701,-55.97974,-80.34634,-103.2176
2055000000.0,-138.5462,-158.4946,-184.9841,154.8956,129.5409,108.9543,84.20522,61.59743,55.01859,35.18483,9.347847,-11.01331,-36.51923,-57.14452,-81.55087,-104.3427
2056000000.0,-139.3521,-159.2828,-185.6743,153.9569,128.5155,107.9064,82.94761,60.63158,54.24306,34.30589,8.607278,-11.84945,-37.58826,-58.32437,-82.73328,-105.4635
2057000000.0,-140.3191,-160.1034,-186.4646,153.0152,127.2761,106.7608,81.79369,59.46366,53.23373,33.30055,7.59965,-12.86891,-38.96272,-59.52168,-83.97079,-106.5356
2058000000.0,-141.2787,-161.3361,-187.5494,151.8597,125.9249,105.4238,80.49007,58.33484,52.16401,32.28958,6.531686,-14.04496,-40.23056,-60.90263,-85.32176,-107.7093
2059000000.0,-142.1487,-162.1357,-188.4334,150.8804,124.7093,104.273,79.38795,57.20969,51.22217,31.17588,5.478212,-15.09799,-41.6122,-62.20901,-86.61105,-108.8895
2060000000.0,-142.9088,-162.9273,-189.239,150.068,123.7994,103.2325,78.41208,56.256,50.54374,30.44017,4.881127,-16.00727,-42.68044,-63.07524,-87.52694,-109.7908
2061000000.0,-143.9366,-163.9582,-190.3261,148.8899,122.4406,101.9803,77.15739,55.07896,49.42328,29.38723,3.598302,-17.2568,-44.0658,-64.56963,-88.7967,-111.0219
2062000000.0,-144.566,-164.6164,-190.9845,148.2371,121.5583,101.1699,76.36745,54.38246,48.73545,28.61108,2.982075,-18.08363,-44.90384,-65.31317,-89.59921,-111.7398
2063000000.0,-145.2354,-165.2987,-191.6809,147.3844,120.7276,100.3135,75.64505,53.62489,47.99658,27.87657,2.089063,-18.85463,-45.89315,-66.37266,-90.36674,-112.5406
2064000000.0,-145.8932,-166.0315,-192.4779,146.6033,120.0371,99.51526,74.89439,52.96881,47.33099,27.362,1.394698,-19.69839,-46.63108,-67.03912,-91.25246,-113.2664
2065000000.0,-146.4844,-166.522,-193.1266,145.9684,119.3696,98.86494,74.29788,52.29717,46.72794,26.55955,0.6209272,-20.38885,-47.32719,-67.77388,-91.77612,-113.9134
2066000000.0,-146.8826,-167.0177,-193.5617,145.4241,118.7863,98.28295,73.76646,51.86599,46.14267,26.076,0.04247261,-20.91274,-47.966,-68.33802,-92.31198,-114.4305
2067000000.0,-147.1373,-167.2622,-193.9275,145.1755,118.4602,97.94415,73.51867,51.60408,45.8586,25.77957,-0.3851511,-21.22043,-48.34489,-68.62525,-92.62234,-114.6918
2068000000.0,-147.6388,-167.6674,-194.4158,144.733,117.9831,97.49976,73.28765,51.22367,45.32686,25.205,-0.788459,-21.91062,-48.67266,-69.22623,-92.89659,-115.1156
2069000000.0,-147.8259,-167.7038,-194.6015,144.567,117.9737,97.39433,73.30669,51.18907,45.10396,25.03753,-1.130206,-22.01414,-48.95394,-69.32864,-92.99495,-115.0991
2070000000.0,-147.8549,-167.8091,-194.7971,144.419,117.9645,97.47951,73.30528,51.18037,44.97597,24.88705,-1.33861,-22.18263,-48.77211,-69.29877,-92.90308,-115.2153
2071000000.0,-147.9865,-167.9307,-194.9214,144.3008,117.9501,97.35055,73.37742,51.38945,44.77832,24.80656,-1.634134,-22.39221,-48.93076,-69.4549,-92.84828,-115.2662
2072000000.0,-147.9279,-167.8471,-195.0359,144.3562,118.0955,97.56577,73.69304,51.53343,44.79147,24.77783,-1.749997,-22.38381,-48.73924,-69.30612,-92.64177,-115.1273
2073000000.0,-147.7277,-167.7898,-194.9406,144.4991,118.3981,97.8009,74.07504,51.81651,44.83723,24.88244,-1.656978,-22.29009,-48.48865,-69.06025,-92.36057,-114.8768
2074000000.0,-147.6453,-167.5603,-194.8832,144.558,118.8759,98.157,74.58553,52.27537,44.94266,24.93659,-1.720405,-22.22094,-48.13263,-68.76295,-91.93211,-114.5267
2075000000.0,-147.3881,-167.2447,-194.6976,144.8112,119.4044,98.71239,75.23255,52.74546,45.15705,25.19735,-1.593435,-22.02983,-47.64986,-68.32868,-91.34391,-113.9793
2076000000.0,-147.0128,-166.8649,-194.4914,145.2767,120.0316,99.28312,75.90298,53.31843,45.40525,25.45516,-1.316993,-21.57727,-47.11022,-67.79515,-90.63859,-113.4104
2077000000.0,-146.6723,-166.435,-194.0226,145.6704,120.8462,100.0047,76.80611,54.10548,45.82427,25.98511,-0.8869027,-21.1833,-46.37463,-67.13712,-89.93221,-112.7211
2078000000.0,-146.3239,-166.1627,-193.8019,145.9785,121.4655,100.7276,77.28337,54.55275,45.93752,26.11024,-0.7698067,-20.85522,-45.75963,-66.46265,-89.4101,-112.3142
2079000000.0,-146.1604,-166.0773,-193.6801,146.4856,121.9879,101.1277,77.91008,55.03548,46.21503,26.33029,-0.5655903,-20.7054,-45.27254,-66.05402,-88.76028,-111.8561
2080000000.0,-145.6969,-165.4787,-193.1087,146.9685,122.8018,101.955,78.85903,55.72746,46.45157,26.80381,-0.1898921,-20.24138,-44.62983,-65.39928,-88.12816,-111.2899
2081000000.0,-145.5353,-165.1374,-192.872,147.4344,123.3838,102.4882,79.3102,56.27006,46.63317,27.04661,0.04898342,-19.8272,-43.89935,-64.82135,-87.5945,-110.7339
2082000000.0,-145.13,-164.8349,-192.4372,147.7932,124.1891,103.2054,80.00628,56.83114,47.02528,27.32518,0.425134,-19.37638,-43.37277,-64.12682,-86.95268,-110.3608
2083000000.0,-144.8674,-164.7166,-192.2249,148.1357,124.6685,103.6754,80.57047,57.18341,47.1313,27.4841,0.6159283,-19.0941,-42.83535,-63.59502,-86.46788,-109.9783
2084000000.0,-144.5915,-164.3292,-191.8524,148.6109,125.2673,104.2138,80.9031,57.70644,47.38142,27.74093,0.9242414,-18.66258,-42.22675,-63.14904,-86.08531,-109.523
2085000000.0,-144.5911,-164.2821,-191.6223,148.755,125.5078,104.5768,81.20045,57.92129,47.33173,27.67748,1.041426,-18.61927,-41.97095,-62.97316,-85.91489,-109.318
2086000000.0,-144.7047,-164.351,-191.6024,148.7234,125.6455,104.6208,81.27644,57.91975,47.12181,27.53911,0.9839594,-18.55368,-41.97118,-62.88716,-85.90076,-109.4664
2087000000.0,-144.7515,-164.464,-191.6333,148.7795,125.7838,104.7463,81.22771,57.96078,47.0973,27.46855,0.9216741,-18.57362,-41.88403,-62.85985,-85.98305,-109.4643
2088000000.0,-144.7339,-164.5186,-191.6053,148.7891,125.8459,104.9071,81.2212,57.92082,47.14442,27.46314,1.087689,-18.5841,-42.02768,-62.81799,-86.04111,-109.4484
2089000000.0,-145.0298,-164.7293,-191.6807,148.7107,125.5543,104.7697,80.98356,57.66735,46.80051,27.18154,0.8739901,-18.82085,-42.20088,-63.09565,-86.3357,-109.7803
2090000000.0,-145.4364,-165.1497,-191.9533,148.4138,125.2258,104.4215,80.58628,57.32475,46.30111,26.71798,0.5108324,-19.1292,-42.6038,-63.53617,-86.71052,-110.1991
2091000000.0,-145.7763,-165.4998,-192.2229,147.9298,124.7943,104.0054,80.0368,56.85319,45.93191,26.31986,0.2558685,-19.58446,-43.04116,-63.9563,-87.46291,-110.7912
2092000000.0,-146.1897,-166.1045,-192.7065,147.5358,124.1982,103.3969,79.32006,56.2463,45.37898,25.69553,-0.2590248,-20.12084,-43.77538,-64.6266,-88.14003,-111.3495
2093000000.0,-146.7109,-166.487,-193.053,147.1015,123.6146,102.9731,78.71017,55.63469,44.92769,25.17115,-0.6536676,-20.59963,-44.33323,-65.24416,-88.828,-112.0528
2094000000.0,-147.3556,-167.3109,-193.6553,146.4991,122.8696,102.0371,77.75487,54.80215,44.16998,24.42011,-1.303599,-21.2757,-45.28585,-65.99708,-89.76562,-112.8934
2095000000.0,-148.2593,-168.1862,-194.3228,145.6278,121.6779,101.0546,76.78242,53.78705,43.39581,23.59334,-1.890499,-22.12054,-46.33738,-66.96545,-90.93555,-113.9998
2096000000.0,-149.0097,-168.9626,-194.8966,144.9208,120.9131,100.1254,75.70486,52.79881,42.497,22.75174,-2.685845,-22.96048,-47.46426,-68.14221,-91.93954,-114.8857
2097000000.0,-149.6815,-169.6648,-195.5796,144.1715,119.8045,99.14362,74.51511,51.91272,41.80072,21.92785,-3.414857,-23.65334,-48.37471,-69.10461,-93.13304,-115.8573
2098000000.0,-150.4315,-170.4161,-196.2422,143.4278,118.8437,98.20635,73.52499,50.96076,41.07534,21.22581,-4.18029,-24.49305,-49.40147,-70.12057,-94.23327,-116.7895
2099000000.0,-151.2853,-171.1543,-197.013,142.5243,117.6781,97.07912,72.41259,49.79812,40.24399,20.27868,-5.003363,-25.48342,-50.71266,-71.33556,-95.37248,-117.9379
2100000000.0,-152.2032,-172.07,-197.9261,141.5748,116.456,95.88852,71.16389,48.80616,39.30527,19.25339,-5.873576,-26.44472,-51.91377,-72.57154,-96.71616,-119.155
2101000000.0,-152.9777,-172.9739,-198.7131,140.6429,115.3372,94.78892,70.01106,47.74462,38.42619,18.40491,-6.735585,-27.49153,-53.18682,-73.68343,-97.90984,-120.2662
2102000000.0,-153.8165,-173.7968,-199.5559,139.745,114.2787,93.67,68.93382,46.82104,37.4798,17.59254,-7.672638,-28.33763,-54.28337,-74.88192,-98.95969,-121.2409
2103000000.0,-154.4373,-174.6369,-200.3066,138.8984,113.261,92.63608,68.08267,45.89177,36.75229,16.78664,-8.47538,-29.25808,-55.34637,-75.90837,-99.90905,-122.0898
2104000000.0,-155.2275,-175.3059,-200.9643,138.0063,112.3246,91.76569,67.18817,45.12861,36.10177,15.95179,-9.144654,-30.10406,-56.43955,-76.96105,-100.8978,-122.9218
2105000000.0,-156.0336,-176.1095,-201.8854,137.1281,111.1468,90.71683,66.15525,44.2321,35.20081,15.24684,-10.0884,-31.10554,-57.45216,-77.91264,-101.904,-123.9228
2106000000.0,-156.5064,-176.5823,-202.3721,136.6932,110.5665,90.16981,65.58451,43.59557,34.73415,14.63482,-10.64631,-31.75152,-58.09667,-78.58739,-102.5564,-124.5032
2107000000.0,-157.0528,-177.1891,-203.0699,135.9391,109.7703,89.30594,64.81306,42.98067,34.07585,14.00572,-11.41373,-32.37322,-58.96387,-79.47791,-103.1798,-125.1481
2108000000.0,-157.4117,-177.5057,-203.5528,135.3999,109.3563,88.90807,64.62043,42.6555,33.70156,13.55241,-11.7899,-32.89065,-59.59539,-79.9337,-103.624,-125.5719
2109000000.0,-158.0999,-178.1936,-204.2088,134.8297,108.7347,88.21996,63.89895,41.92234,32.98403,12.9352,-12.67336,-33.677,-60.21569,-80.59329,-104.3602,-126.282
2110000000.0,-158.2786,-178.4125,-204.5493,134.4632,108.3905,87.85778,63.65726,41.70052,32.72422,12.50346,-13.07895,-34.08024,-60.521,-80.97186,-104.5907,-126.5189
2111000000.0,-158.5948,-178.6356,-204.9377,134.1836,108.1732,87.47567,63.5471,41.45787,32.27973,12.24269,-13.43711,-34.40386,-60.81461,-81.30595,-104.7818,-126.7883
2112000000.0,-158.7624,-178.8647,-205.1844,133.8324,108.0142,87.36899,63.51311,41.37691,32.06622,12.01222,-13.73152,-34.6341,-61.02407,-81.54099,-104.8834,-126.958
2113000000.0,-158.9452,-179.012,-205.3568,133.7232,107.9449,87.35914,63.51191,41.46114,31.87672,11.83629,-13.91165,-34.85386,-61.16378,-81.59809,-104.9275,-127.0383
2114000000.0,-159.0524,-179.0057,-205.5808,133.6144,107.8816,87.305,63.56395,41.4653,31.79775,11.72605,-14.15768,-34.98927,-61.09237,-81.64713,-104.7945,-126.9566
2115000000.0,-158.9686,-178.955,-205.5407,133.6832,108.2304,87.59193,63.93528,41.74836,31.88263,11.74802,-14.28979,-34.95506,-61.00139,-81.51414,-104.5342,-126.8673
2116000000.0,-158.9303,-179.0239,-205.6291,133.6714,108.388,87.72954,64.23013,41.92357,31.74236,11.79512,-14.41596,-35.09956,-60.79008,-81.36447,-104.2851,-126.6646
2117000000.0,-158.7498,-178.7005,-205.2526,133.9284,108.8867,88.14545,64.76538,42.40499,31.85822,11.95542,-14.21411,-34.85789,-60.40863,-81.04424,-103.7723,-126.2472
2118000000.0,-158.6302,-178.5446,-205.3867,134.0914,109.2767,88.39998,65.23071,42.73149,31.96924,12.05302,-14.16998,-34.74349,-60.00684,-80.6589,-103.415,-125.8237
2119000000.0,-158.2506,-178.1918,-205.1366,134.3785,109.9913,89.1142,65.987,43.46232,32.26876,12.33711,-13.95541,-34.35011,-59.4974,-80.19724,-102.8059,-125.3399
