Board # 2Port # 2
s21 unwrapped phase measurement
"Sun, 18 Sep 2016 22:16:00 +0000"
Freq(Hz),phase0 (Deg),phase1 (Deg),phase2 (Deg),phase3 (Deg),phase4 (Deg),phase5 (Deg),phase6 (Deg),phase7 (Deg),phase8 (Deg),phase9 (Deg),phase10 (Deg),phase11 (Deg),phase12 (Deg),phase13 (Deg),phase14 (Deg),phase15 (Deg)
2000000000.0,-120.3286,-139.7323,-168.3043,172.1703,148.4938,127.0196,103.3575,79.76212,75.76923,56.42351,28.99631,9.612262,-14.23308,-35.46291,-59.11492,-83.51528
2001000000.0,-120.4842,-140.0406,-168.5187,172.0137,148.3902,126.9857,103.0633,79.52204,75.57022,56.12085,28.79086,9.398385,-14.29098,-35.6715,-59.27651,-83.72512
2002000000.0,-120.6243,-140.105,-168.5458,172.0241,148.3932,127.0592,103.1768,79.66121,75.48106,55.96534,28.71921,9.31698,-14.35257,-35.82458,-59.3424,-83.79201
2003000000.0,-120.7229,-140.3512,-168.5761,171.907,148.3801,127.0103,103.0441,79.64495,75.1594,55.83515,28.61306,9.228592,-14.51202,-35.89227,-59.68769,-83.91106
2004000000.0,-121.0141,-140.5711,-168.8589,171.7777,148.1163,126.7636,102.7142,79.23206,74.7439,55.4597,28.31559,8.834634,-14.80479,-36.15565,-60.03473,-84.38129
2005000000.0,-121.2724,-140.992,-169.079,171.4707,147.7961,126.561,102.4366,78.87939,74.50483,55.12195,28.21966,8.635712,-15.16844,-36.56207,-60.54114,-84.7269
2006000000.0,-121.9148,-141.5571,-169.5028,170.9446,147.2487,126.0132,101.7461,78.30924,73.88601,54.43752,27.62704,8.015832,-15.7614,-37.21361,-61.19397,-85.3266
2007000000.0,-122.3239,-141.8805,-169.7601,170.6575,146.8732,125.6548,101.2755,77.86687,73.59328,54.09858,27.34033,7.65329,-16.36128,-37.60588,-61.67955,-85.85803
2008000000.0,-122.9471,-142.668,-170.4295,169.9547,146.0233,124.8429,100.3162,76.9995,72.86189,53.32517,26.6474,6.948681,-17.30775,-38.48565,-62.63937,-86.65749
2009000000.0,-123.5626,-143.2719,-170.9159,169.3886,145.258,124.1432,99.54356,76.37024,72.21526,52.7362,26.06371,6.198623,-18.0672,-39.29966,-63.51267,-87.39435
2010000000.0,-124.3297,-144.0691,-171.5407,168.6321,144.3397,123.3129,98.59731,75.40714,71.31868,51.90037,25.39049,5.582141,-19.09317,-40.18792,-64.57843,-88.38988
2011000000.0,-124.9789,-144.8204,-172.198,168.0244,143.5147,122.4652,97.62879,74.54792,70.69549,51.12949,24.71998,4.705888,-20.10816,-41.22449,-65.59762,-89.31824
2012000000.0,-125.7111,-145.7649,-172.8338,167.2559,142.4696,121.4825,96.54005,73.59718,69.84834,50.2959,23.93566,3.898092,-21.1921,-42.17205,-66.74705,-90.20112
2013000000.0,-126.5673,-146.4399,-173.5526,166.2991,141.3685,120.4816,95.45329,72.69082,69.07597,49.4094,23.16903,2.958778,-22.31262,-43.28576,-67.78335,-91.23936
2014000000.0,-127.2747,-147.1084,-174.265,165.6337,140.4383,119.4658,94.47696,71.77653,68.46333,48.63373,22.42394,2.16753,-23.4175,-44.27712,-68.82204,-92.17892
2015000000.0,-128.0456,-147.9404,-175.0657,164.7902,139.3683,118.4491,93.48721,70.77757,67.46645,47.87041,21.56587,1.167143,-24.43444,-45.3297,-69.88169,-93.20534
2016000000.0,-128.7937,-148.7712,-175.778,163.8491,138.4192,117.4679,92.45853,69.99147,66.80611,46.90898,20.85091,0.4726048,-25.6019,-46.46258,-70.99557,-94.09771
2017000000.0,-129.5829,-149.5388,-176.4887,163.105,137.3585,116.4935,91.48492,69.08411,65.9844,46.16022,19.88,-0.568551,-26.48915,-47.44767,-72.06927,-95.07738
2018000000.0,-130.2338,-150.2246,-177.2127,162.3949,136.3988,115.5612,90.64897,68.25095,65.2477,45.45747,19.11629,-1.397395,-27.58274,-48.41908,-72.92754,-95.90192
2019000000.0,-130.9094,-150.9123,-177.9779,161.6099,135.6152,114.6411,89.82733,67.35299,64.55427,44.69116,18.29732,-2.213561,-28.6246,-49.32494,-73.85486,-96.62522
2020000000.0,-131.4617,-151.58,-178.5423,160.908,134.8158,113.9072,89.1369,66.84924,63.92472,43.91285,17.66101,-3.062315,-29.36576,-50.17778,-74.58585,-97.42858
2021000000.0,-132.1767,-152.289,-179.2607,160.2824,134.0212,113.2124,88.24646,66.04675,63.1887,43.2086,16.90051,-3.727609,-30.28395,-50.99915,-75.31396,-98.226
2022000000.0,-132.5516,-152.58,-179.678,159.6783,133.5759,112.7234,87.9618,65.6012,62.95032,42.83335,16.48671,-4.276502,-30.71926,-51.53297,-75.75606,-98.61169
2023000000.0,-132.8596,-152.9026,-180.0454,159.3667,133.144,112.3411,87.5925,65.28134,62.3672,42.44838,15.97218,-4.70554,-31.17172,-51.89981,-76.10097,-98.96868
2024000000.0,-133.3376,-153.2069,-180.5387,158.9969,132.7111,111.9185,87.21531,64.88918,61.96388,41.92311,15.45739,-5.302424,-31.62882,-52.44638,-76.5742,-99.43983
2025000000.0,-133.7562,-153.6833,-181.0296,158.5531,132.3456,111.4483,86.83577,64.4837,61.39122,41.43639,14.96274,-5.680417,-32.19242,-52.89139,-76.90958,-99.86396
2026000000.0,-133.9352,-153.9109,-181.3067,158.2087,132.0774,111.1632,86.68813,64.33525,61.13241,41.2288,14.51032,-6.167027,-32.4424,-53.20605,-77.10091,-100.0364
2027000000.0,-134.0764,-153.8442,-181.4648,158.0862,132.0058,111.1301,86.8204,64.32402,60.97426,40.99041,14.25686,-6.203669,-32.42422,-53.28315,-77.16711,-100.018
2028000000.0,-134.208,-154.0253,-181.6221,158.0741,132.1563,111.068,86.87724,64.33835,60.7494,40.83184,14.05752,-6.49048,-32.39611,-53.31891,-77.07533,-100.1428
2029000000.0,-134.2455,-154.0412,-181.8395,157.9658,132.1385,111.0758,86.9725,64.44457,60.63542,40.67701,13.88153,-6.572753,-32.4864,-53.39066,-77.01774,-100.1193
2030000000.0,-134.3573,-154.1678,-181.9181,157.9793,132.2163,111.1838,87.1394,64.59787,60.44555,40.60914,13.66294,-6.644328,-32.37035,-53.28525,-76.85355,-100.0226
2031000000.0,-134.2113,-154.0967,-181.8405,157.9284,132.5416,111.4715,87.56902,64.7612,60.41293,40.63836,13.58909,-6.605978,-32.15414,-53.04153,-76.65806,-99.83327
2032000000.0,-134.0873,-153.8869,-181.8021,158.1199,132.8593,111.7379,87.91891,65.21813,60.47618,40.69873,13.65756,-6.583596,-31.83581,-52.83175,-76.18707,-99.53819
2033000000.0,-134.0735,-153.7103,-181.6714,158.2028,133.3129,112.1983,88.38573,65.5286,60.58496,40.86167,13.72368,-6.46092,-31.45753,-52.48994,-75.7759,-99.11415
2034000000.0,-133.8404,-153.4619,-181.4902,158.3456,133.678,112.5668,88.98408,66.01631,60.62444,40.96568,13.75732,-6.166073,-31.06546,-52.0707,-75.40584,-98.79226
2035000000.0,-133.5703,-153.2473,-181.3332,158.8606,134.2986,113.0989,89.61003,66.5144,60.95921,41.27853,13.94345,-5.954942,-30.48635,-51.53883,-74.6723,-98.47861
2036000000.0,-133.5362,-153.2064,-181.2673,158.9352,134.6693,113.4755,89.97338,66.80569,60.83978,41.25311,13.98985,-5.795203,-30.24717,-51.31889,-74.50761,-98.2041
2037000000.0,-133.4481,-153.1189,-181.2515,159.1422,135.1633,113.9119,90.30889,67.09919,60.84951,41.28221,14.05915,-5.665877,-29.76414,-51.02451,-74.05444,-98.01247
2038000000.0,-133.1386,-152.8106,-180.8764,159.3403,135.5818,114.3693,90.86634,67.53303,60.91917,41.35332,14.14257,-5.368279,-29.22968,-50.48905,-73.66747,-97.54366
2039000000.0,-132.987,-152.6137,-180.7498,159.786,136.1726,114.7516,91.47875,67.98707,61.01513,41.54682,14.36454,-5.206747,-28.75463,-50.14454,-73.24621,-97.22569
2040000000.0,-133.0145,-152.6687,-180.7339,159.8247,136.4487,115.105,91.61286,68.1403,60.98041,41.59781,14.36791,-5.107251,-28.70288,-49.88435,-73.07773,-97.0364
2041000000.0,-132.9312,-152.3916,-180.3932,160.1378,136.911,115.4642,92.05056,68.5904,61.20742,41.72153,14.63866,-4.79406,-28.10897,-49.54002,-72.70226,-96.82352
2042000000.0,-132.929,-152.3509,-180.5336,160.0927,137.0487,115.6963,92.15259,68.56262,61.06705,41.5912,14.53781,-4.772223,-28.0808,-49.43427,-72.61217,-96.77395
2043000000.0,-133.0233,-152.5662,-180.4996,160.1441,137.2569,115.7355,92.13668,68.6937,60.84341,41.49318,14.53039,-4.802711,-28.14159,-49.36042,-72.57219,-96.83227
2044000000.0,-133.1778,-152.7426,-180.5894,160.081,137.1634,115.8731,92.14881,68.57339,60.70367,41.33713,14.36934,-5.001371,-28.08283,-49.42452,-72.75339,-96.97011
2045000000.0,-133.2919,-152.8262,-180.6852,159.9962,137.091,115.7475,92.01719,68.4642,60.45194,41.09055,14.19849,-5.152809,-28.14959,-49.60329,-72.98914,-97.18005
2046000000.0,-133.4211,-153.0736,-180.8331,159.8159,136.9472,115.7294,91.90987,68.27779,60.34649,41.01725,14.16361,-5.286201,-28.38865,-49.77926,-73.28228,-97.3534
2047000000.0,-133.7532,-153.3747,-180.9569,159.5931,136.7017,115.461,91.45808,67.94885,59.99759,40.46915,13.88139,-5.543375,-28.7333,-50.11509,-73.67335,-97.71408
2048000000.0,-134.0526,-153.7533,-181.2186,159.3632,136.3148,115.1031,91.15144,67.71113,59.66358,40.19289,13.66112,-5.796984,-29.13804,-50.51269,-74.04424,-98.14365
2049000000.0,-134.6265,-154.3043,-181.5849,158.8837,135.7751,114.5593,90.47868,67.09793,59.03801,39.60534,13.19739,-6.324941,-29.72018,-51.06335,-74.78899,-98.70669
2050000000.0,-135.1455,-154.8744,-181.9887,158.487,135.1373,114.0107,89.88078,66.48989,58.63709,39.14862,12.7452,-6.88079,-30.44382,-51.68843,-75.60534,-99.35234
2051000000.0,-135.5434,-155.2977,-182.4961,157.9674,134.5005,113.4805,89.10702,65.85344,58.07806,38.49302,12.21293,-7.378894,-31.14833,-52.35286,-76.31178,-99.93714
2052000000.0,-136.1448,-155.9042,-182.8737,157.4085,133.8666,112.8811,88.37247,65.14866,57.4346,37.90115,11.79703,-8.058512,-31.93373,-53.13979,-77.16837,-100.7316
2053000000.0,-136.8054,-156.4917,-183.4764,156.753,132.9538,111.9017,87.35454,64.23697,56.87757,37.13311,11.12657,-8.648561,-32.84059,-54.01844,-78.23814,-101.6176
2054000000.0,-137.5427,-157.4043,-184.1491,156.0145,131.9666,110.9663,86.37295,63.35619,56.01368,36.36575,10.375,-9.508998,-33.96132,-55.0273,-79.29818,-102.6556
2055000000.0,-138.136,-158.1258,-184.7917,155.2379,131.0073,110.1129,85.367,62.52018,55.28397,35.65623,9.767095,-10.34123,-34.83807,-55.90171,-80.24477,-103.5754
2056000000.0,-138.7326,-158.6251,-185.2308,154.6385,130.2267,109.3476,84.53993,61.77019,54.77193,34.96646,9.263048,-10.94773,-35.83888,-56.80508,-81.08929,-104.1494
2057000000.0,-139.3483,-159.3619,-185.7951,153.9702,129.2453,108.4305,83.57587,60.8185,54.04169,34.26622,8.526171,-11.72536,-36.80909,-57.72336,-82.07332,-105.1511
2058000000.0,-140.1012,-160.1737,-186.6473,153.1295,128.1709,107.3465,82.52057,59.98674,53.21467,33.40873,7.660457,-12.69236,-37.97538,-58.94075,-83.25348,-106.1071
2059000000.0,-140.8074,-160.9491,-187.3641,152.3833,127.2451,106.3707,81.60184,59.0876,52.49385,32.66476,6.844532,-13.56209,-39.0176,-59.86275,-84.2183,-107.0932
2060000000.0,-141.3501,-161.3599,-187.8156,151.649,126.5113,105.6822,80.72495,58.46427,51.93175,32.03418,6.254348,-14.11331,-39.85447,-60.72543,-84.93805,-107.7562
2061000000.0,-142.2344,-162.2432,-188.7339,150.8237,125.3683,104.5591,79.78812,57.47485,51.2093,31.14877,5.374399,-15.16988,-41.03643,-61.89814,-86.04096,-108.8422
2062000000.0,-142.6771,-162.7709,-189.2214,150.2654,124.6381,103.9435,79.26534,56.84134,50.47933,30.61338,4.809879,-15.80583,-41.65347,-62.60666,-86.84949,-109.3646
2063000000.0,-143.2398,-163.3431,-189.8698,149.6193,123.8659,103.2896,78.3945,56.25774,49.90472,30.04349,4.199891,-16.56827,-42.60894,-63.21578,-87.46095,-110.0312
2064000000.0,-143.6263,-163.845,-190.3743,149.0453,123.2941,102.6069,77.98847,55.73908,49.4053,29.35649,3.562264,-17.08392,-43.17953,-63.87976,-88.1447,-110.6641
2065000000.0,-144.2,-164.2758,-190.8484,148.4972,122.7452,101.935,77.40981,55.17669,48.92303,28.85447,2.909393,-17.73438,-43.84122,-64.56318,-88.66328,-111.2332
2066000000.0,-144.6563,-164.6704,-191.4024,148.098,122.3114,101.489,77.05102,54.81496,48.40223,28.50711,2.436152,-18.32396,-44.37125,-65.0575,-89.02919,-111.603
2067000000.0,-144.9173,-164.9701,-191.6454,147.774,122.0458,101.2178,76.79398,54.57762,48.13957,28.06604,2.035072,-18.59286,-44.61626,-65.45663,-89.36729,-111.8925
2068000000.0,-145.2524,-165.4022,-192.2106,147.3693,121.6166,100.7611,76.47737,54.10228,47.57538,27.66601,1.513059,-19.17914,-45.1023,-65.87318,-89.63371,-112.2995
2069000000.0,-145.5443,-165.4636,-192.486,147.0642,121.4719,100.648,76.31036,54.06203,47.38588,27.41415,1.125799,-19.4353,-45.24898,-66.06816,-89.7626,-112.4852
2070000000.0,-145.6272,-165.6914,-192.5757,146.9808,121.316,100.5219,76.41271,54.00664,47.1755,27.20614,0.8705812,-19.63633,-45.39801,-66.26149,-89.8018,-112.5926
2071000000.0,-145.862,-165.8258,-192.8635,146.7655,121.2409,100.3919,76.36047,53.98934,46.89125,26.91922,0.5334486,-19.88429,-45.49563,-66.38055,-89.92233,-112.7155
2072000000.0,-145.9824,-165.9363,-193.059,146.6379,121.3722,100.4778,76.57963,54.00737,46.68768,26.84286,0.4575943,-19.96336,-45.56957,-66.40651,-89.79613,-112.7239
2073000000.0,-146.0315,-165.8641,-193.1485,146.5276,121.4926,100.4821,76.71178,54.18539,46.63149,26.68057,0.2264017,-19.98588,-45.5053,-66.38107,-89.64412,-112.6365
2074000000.0,-146.069,-165.9638,-193.2938,146.5946,121.7328,100.616,77.0426,54.246,46.36252,26.70164,0.08766212,-20.17424,-45.37814,-66.23417,-89.54253,-112.4811
2075000000.0,-146.0269,-165.8459,-193.4061,146.5999,121.9009,100.8702,77.31657,54.74057,46.46438,26.76006,0.01617352,-20.13415,-45.00354,-66.00965,-89.05769,-112.1596
2076000000.0,-145.8815,-165.6382,-193.269,146.8264,122.2636,101.2094,77.7982,54.9455,46.61644,26.81937,0.1012694,-20.04021,-44.66717,-65.67911,-88.72729,-111.8273
2077000000.0,-145.6443,-165.4526,-192.9573,147.0035,122.8622,101.7333,78.37809,55.45407,46.69979,26.92566,0.2253901,-19.82928,-44.17221,-65.27216,-88.15057,-111.4928
2078000000.0,-145.6925,-165.4746,-193.0724,147.1796,123.1315,102.1204,78.77293,55.65389,46.5373,26.98892,0.07001415,-19.76336,-43.85445,-64.95427,-87.93658,-111.2756
2079000000.0,-145.7478,-165.3656,-193.0637,147.1714,123.4163,102.3317,79.11542,55.96017,46.56506,26.84285,0.0124219,-19.78766,-43.62182,-64.79586,-87.62939,-111.1104
2080000000.0,-145.4896,-165.2223,-192.8565,147.4605,124.0403,102.8447,79.57658,56.28976,46.65561,27.02748,0.1578255,-19.50127,-43.10872,-64.37962,-87.06584,-110.6857
2081000000.0,-145.5211,-165.1751,-192.8979,147.6333,124.4409,103.1694,79.88558,56.63696,46.69721,26.98103,0.1804194,-19.40415,-42.79103,-64.01739,-86.85083,-110.542
2082000000.0,-145.3435,-165.0949,-192.6838,147.8193,124.7736,103.6377,80.29472,56.96029,46.68101,27.16617,0.3134901,-19.21575,-42.47475,-63.65416,-86.46832,-110.3384
2083000000.0,-145.4194,-165.1679,-192.6353,147.9415,125.1489,103.8544,80.60198,57.19715,46.71574,27.14593,0.2961163,-19.20272,-42.15204,-63.44734,-86.33718,-110.1133
2084000000.0,-145.3069,-164.9051,-192.3162,148.2359,125.494,104.1912,80.87478,57.44136,46.67105,27.13623,0.4458383,-18.93729,-41.7476,-63.20411,-85.94673,-109.9763
2085000000.0,-145.312,-164.9187,-192.4446,148.1703,125.5825,104.2634,80.97232,57.4617,46.6651,27.00212,0.4334017,-19.01023,-41.76114,-63.05787,-86.0923,-109.8912
2086000000.0,-145.5862,-165.1834,-192.6601,148.0017,125.6409,104.2791,80.89322,57.38741,46.38995,26.77001,0.2201293,-19.1556,-41.84892,-63.25885,-86.18056,-110.1013
2087000000.0,-145.7624,-165.3582,-192.7058,147.9462,125.5523,104.3584,80.83879,57.32369,46.16964,26.59074,0.1008974,-19.26448,-41.9705,-63.31681,-86.18301,-110.2403
2088000000.0,-145.8116,-165.4423,-192.5532,147.9765,125.6879,104.3667,80.7093,57.27142,46.09379,26.48984,0.1394737,-19.29138,-41.98123,-63.28901,-86.44602,-110.3049
2089000000.0,-145.9505,-165.6686,-192.7578,147.7478,125.3729,104.1629,80.56804,57.07881,45.72761,26.16845,-0.05402879,-19.57509,-42.26398,-63.55719,-86.73283,-110.4927
2090000000.0,-146.4734,-166.1098,-193.0493,147.5031,125.0303,103.8635,80.22183,56.70639,45.3475,25.81545,-0.4055004,-19.86316,-42.55273,-63.91796,-87.24075,-110.9809
2091000000.0,-146.7975,-166.5184,-193.3126,147.1647,124.6606,103.5402,79.54639,56.32627,44.91625,25.44222,-0.6651363,-20.25379,-43.06285,-64.28426,-87.72002,-111.4272
2092000000.0,-147.1229,-166.942,-193.6875,146.746,124.2071,102.9873,79.10283,55.82658,44.51365,24.86196,-1.067626,-20.73443,-43.54233,-64.81443,-88.32909,-111.8509
2093000000.0,-147.4602,-167.1911,-193.8603,146.5226,123.8983,102.6752,78.65081,55.36364,44.19944,24.52724,-1.283076,-20.93918,-44.00086,-65.2346,-88.76167,-112.3283
2094000000.0,-147.9397,-167.7584,-194.2776,145.9682,123.0429,102.1084,77.85567,54.69161,43.71169,23.97931,-1.758365,-21.5303,-44.76397,-65.89569,-89.62933,-113.0268
2095000000.0,-148.5856,-168.4562,-194.7602,145.3807,122.3495,101.3449,77.09058,53.93229,43.00623,23.39418,-2.42489,-22.13455,-45.63787,-66.67197,-90.57626,-113.9454
2096000000.0,-149.1591,-169.1284,-195.2161,144.8525,121.5181,100.5926,76.16759,53.1603,42.42973,22.63467,-2.9063,-22.80496,-46.50704,-67.5383,-91.44811,-114.7193
2097000000.0,-149.6759,-169.5593,-195.7092,144.2732,120.8932,99.9041,75.45377,52.6118,41.95165,22.16341,-3.345609,-23.29802,-47.18888,-68.20654,-92.24483,-115.3534
2098000000.0,-150.0994,-170.1384,-196.1685,143.7852,120.1051,99.12328,74.60836,51.7067,41.43404,21.49722,-3.826328,-23.94582,-48.05862,-69.0493,-93.04788,-116.0399
2099000000.0,-150.6992,-170.6684,-196.7248,143.0759,119.2704,98.34525,73.73818,51.05946,40.86013,20.9102,-4.386385,-24.69594,-48.89836,-69.84187,-94.02402,-116.8991
2100000000.0,-151.4452,-171.4124,-197.3682,142.4723,118.2917,97.48476,72.74689,50.0469,40.10902,20.05964,-5.091591,-25.46964,-50.01797,-70.8976,-95.04736,-117.8678
2101000000.0,-152.0073,-171.994,-197.9467,141.7463,117.3307,96.62591,71.90829,49.40491,39.56998,19.4983,-5.756011,-26.20652,-50.83807,-71.77578,-96.03175,-118.7121
2102000000.0,-152.6801,-172.6575,-198.6117,141.0314,116.484,95.65173,71.0136,48.66155,38.73801,18.76421,-6.371248,-26.8805,-51.90906,-72.76027,-96.80833,-119.5751
2103000000.0,-153.1443,-173.1849,-199.0993,140.4588,115.7234,94.92178,70.30624,47.938,38.30696,18.23632,-6.988559,-27.57044,-52.70644,-73.54244,-97.66631,-120.1094
2104000000.0,-153.6149,-173.7271,-199.6063,139.8724,114.9487,94.29353,69.6431,47.34266,37.77015,17.67877,-7.563955,-28.20539,-53.50745,-74.31377,-98.3546,-120.7582
2105000000.0,-154.19,-174.4275,-200.2817,139.1207,114.1739,93.30935,68.84536,46.55664,37.01418,16.93098,-8.365472,-29.06473,-54.44976,-75.15675,-99.25402,-121.6215
2106000000.0,-154.5866,-174.6448,-200.5976,138.6334,113.65,92.79693,68.3371,46.09587,36.68652,16.53726,-8.708658,-29.43473,-55.03869,-75.80836,-99.75475,-122.1109
2107000000.0,-155.0339,-175.2039,-201.1248,138.0923,113.0289,92.25677,67.81662,45.48653,36.10654,15.89612,-9.333029,-30.11273,-55.70103,-76.46615,-100.3889,-122.692
2108000000.0,-155.3467,-175.4599,-201.5311,137.8147,112.5943,91.84346,67.43167,45.25134,35.87259,15.65661,-9.775505,-30.508,-56.20156,-76.94028,-100.6801,-122.9604
2109000000.0,-155.8715,-176.0812,-202.257,137.174,111.9333,91.23994,66.80347,44.66168,35.18796,14.98713,-10.41361,-31.21423,-56.86048,-77.5458,-101.3224,-123.636
2110000000.0,-156.1484,-176.3661,-202.5423,136.7893,111.6951,90.91168,66.69676,44.45506,34.90765,14.72379,-10.81815,-31.44575,-57.24357,-77.96362,-101.6284,-123.9195
2111000000.0,-156.5205,-176.6195,-202.93,136.4827,111.3297,90.5545,66.41897,44.13424,34.52571,14.41923,-11.21808,-31.97146,-57.52785,-78.24043,-101.8166,-124.1305
2112000000.0,-156.7703,-176.8425,-203.1338,136.1349,111.0745,90.31466,66.21458,44.16227,34.21191,14.15774,-11.55506,-32.20006,-57.81581,-78.53569,-101.9395,-124.3644
2113000000.0,-156.9461,-177.0119,-203.3794,136.0189,111.0467,90.17625,66.24696,43.81563,33.94683,13.87815,-11.97681,-32.55148,-57.92645,-78.69009,-102.1404,-124.5339
2114000000.0,-157.1813,-177.1023,-203.6278,135.8246,111.0073,90.10104,66.17915,43.8173,33.73063,13.70707,-12.29908,-32.80244,-58.07048,-78.81979,-102.1747,-124.7102
2115000000.0,-157.1501,-177.2592,-203.8141,135.7632,110.9929,90.1833,66.44373,43.9027,33.63602,13.60665,-12.31164,-32.82892,-57.98432,-78.88729,-102.0604,-124.5614
2116000000.0,-157.4345,-177.2811,-204.0447,135.5144,111.0707,90.16458,66.47026,43.93139,33.2714,13.24663,-12.64285,-33.06904,-58.05716,-78.93404,-102.0059,-124.678
2117000000.0,-157.398,-177.2901,-204.067,135.605,111.3544,90.29975,66.88564,44.11,33.32488,13.46194,-12.75793,-33.09217,-57.80025,-78.73438,-101.7073,-124.4944
2118000000.0,-157.5217,-177.3129,-204.2346,135.6001,111.43,90.40291,66.91486,44.32802,33.18457,13.29054,-12.95409,-33.19251,-57.69398,-78.63939,-101.5279,-124.3267
2119000000.0,-157.3657,-177.1916,-204.0028,135.8035,111.8261,90.75468,67.48135,44.6026,33.30761,13.44047,-12.91867,-33.02975,-57.42988,-78.34012,-101.154,-124.1062
