Board # 2Port # 3
s21 unwrapped phase measurement
"Sun, 18 Sep 2016 22:20:17 +0000"
Freq(Hz),phase0 (Deg),phase1 (Deg),phase2 (Deg),phase3 (Deg),phase4 (Deg),phase5 (Deg),phase6 (Deg),phase7 (Deg),phase8 (Deg),phase9 (Deg),phase10 (Deg),phase11 (Deg),phase12 (Deg),phase13 (Deg),phase14 (Deg),phase15 (Deg)
2000000000.0,-120.0675,-139.5796,-168.37,172.2076,148.2618,127.0149,103.2529,80.02727,76.04962,56.57686,29.15604,9.644663,-14.22534,-35.43383,-59.03418,-83.15262
2001000000.0,-120.2857,-139.8434,-168.5109,171.9494,148.1682,127.0014,103.2163,79.92178,75.80293,56.33259,28.84452,9.417256,-14.30363,-35.66586,-59.22159,-83.33029
2002000000.0,-120.3352,-139.9913,-168.6596,172.0405,148.1616,127.0385,103.1705,79.8518,75.51452,56.11372,28.69005,9.372869,-14.35308,-35.65604,-59.46615,-83.48399
2003000000.0,-120.4909,-140.1514,-168.6421,171.8887,148.1626,126.951,103.0557,79.79709,75.30736,55.99498,28.65159,9.258119,-14.40796,-35.69898,-59.60103,-83.62614
2004000000.0,-120.8835,-140.4924,-169.0125,171.7317,147.9135,126.7132,102.7048,79.45446,74.97669,55.52491,28.26541,8.943997,-14.86073,-36.16192,-59.88148,-83.96564
2005000000.0,-121.139,-140.9205,-169.2645,171.4462,147.5673,126.4305,102.3527,79.10535,74.65663,55.25796,28.07886,8.579731,-15.14048,-36.52382,-60.44114,-84.46107
2006000000.0,-121.7733,-141.3556,-169.6333,170.9259,147.0817,126.0033,101.7717,78.53103,74.16433,54.67039,27.54193,8.118957,-15.81707,-37.09679,-61.09399,-85.06496
2007000000.0,-122.0366,-141.7249,-169.8547,170.7281,146.6455,125.595,101.1998,78.06219,73.72916,54.21357,27.24117,7.686624,-16.31839,-37.43437,-61.58228,-85.6133
2008000000.0,-122.8707,-142.5617,-170.5706,169.9764,145.8235,124.8261,100.3567,77.2507,72.95517,53.39183,26.54397,6.913264,-17.31982,-38.48603,-62.57711,-86.33197
2009000000.0,-123.4101,-143.078,-171.0309,169.4004,145.1294,124.2359,99.54263,76.59552,72.41161,52.87658,26.07259,6.319646,-18.03524,-39.08247,-63.41936,-87.10584
2010000000.0,-124.1847,-143.9115,-171.674,168.7337,144.2125,123.4081,98.58006,75.60022,71.53384,51.97359,25.33199,5.564343,-18.91644,-40.12064,-64.48044,-88.00212
2011000000.0,-124.8719,-144.6712,-172.2286,167.9489,143.3363,122.4691,97.6363,74.7026,70.92042,51.20105,24.615,4.781456,-19.91995,-41.11417,-65.44185,-88.98294
2012000000.0,-125.5222,-145.3898,-173.0847,167.2764,142.3889,121.4432,96.52596,73.82354,70.15267,50.44973,23.90546,3.961508,-21.0921,-42.01017,-66.54068,-89.95922
2013000000.0,-126.4597,-146.3347,-173.7352,166.4191,141.2679,120.5184,95.49496,72.76254,69.22461,49.50411,23.06841,3.015807,-22.20281,-43.18466,-67.81121,-90.9288
2014000000.0,-127.1074,-147.0035,-174.1797,165.7007,140.4492,119.6265,94.52917,71.95757,68.54545,48.7234,22.49627,2.353896,-23.15529,-44.06099,-68.80708,-91.83323
2015000000.0,-127.8028,-147.7995,-175.0894,165.001,139.244,118.5144,93.46149,71.02411,67.72588,47.8961,21.65293,1.401025,-24.28183,-45.1934,-69.80637,-92.89165
2016000000.0,-128.6122,-148.5909,-175.782,164.0779,138.2685,117.631,92.57529,70.11768,66.98915,47.14635,20.86256,0.5743711,-25.42202,-46.23069,-70.83907,-93.76762
2017000000.0,-129.3803,-149.4072,-176.4557,163.2816,137.2742,116.5403,91.5258,69.21533,66.13509,46.27262,19.94804,-0.5159756,-26.42727,-47.29667,-71.8047,-94.73177
2018000000.0,-129.8757,-150.035,-177.1654,162.5455,136.4087,115.7545,90.721,68.41837,65.50907,45.5793,19.27165,-1.276921,-27.48452,-48.18512,-72.66615,-95.54287
2019000000.0,-130.7632,-150.6779,-177.9899,161.7717,135.5024,114.8417,89.88512,67.63122,64.74512,44.67705,18.42282,-1.969121,-28.31164,-49.13364,-73.73363,-96.31226
2020000000.0,-131.226,-151.3238,-178.4073,161.0201,134.8379,114.0565,89.18161,67.01578,64.04893,44.13896,17.73327,-2.81285,-29.1952,-49.92073,-74.34946,-97.05437
2021000000.0,-131.9348,-151.993,-179.2061,160.3456,133.926,113.273,88.39215,66.25045,63.44964,43.36778,16.98769,-3.52232,-29.99534,-50.83948,-75.16546,-97.7199
2022000000.0,-132.2609,-152.2355,-179.4353,160.0245,133.5427,112.8684,87.98521,65.87428,62.97556,43.03166,16.61224,-4.000452,-30.55048,-51.28989,-75.59407,-98.33568
2023000000.0,-132.6068,-152.6238,-179.9756,159.6837,133.1153,112.3621,87.76334,65.57477,62.58316,42.63048,16.13931,-4.421767,-31.00089,-51.7341,-75.96369,-98.59629
2024000000.0,-133.0421,-153.043,-180.3842,159.1397,132.7568,112.0168,87.28219,65.15189,62.12828,42.20375,15.63348,-5.029509,-31.46472,-52.27681,-76.40527,-99.01785
2025000000.0,-133.5161,-153.3934,-180.8996,158.7471,132.3021,111.5115,86.94463,64.84171,61.62414,41.64576,15.18759,-5.460673,-31.87534,-52.63326,-76.74573,-99.38829
2026000000.0,-133.6531,-153.6595,-181.2395,158.4623,132.1247,111.2572,86.85403,64.5328,61.3867,41.4179,14.72241,-5.747492,-32.17866,-52.96926,-76.93862,-99.60928
2027000000.0,-133.7209,-153.7562,-181.3008,158.3295,132.0031,111.3076,86.8176,64.67273,61.25452,41.29292,14.5026,-5.925141,-32.28482,-53.04238,-76.9736,-99.71256
2028000000.0,-133.8199,-153.7221,-181.5539,158.1823,132.0189,111.1811,86.98779,64.70267,60.92943,41.13091,14.20052,-6.19051,-32.38062,-53.18546,-77.0127,-99.77473
2029000000.0,-133.9662,-153.78,-181.6399,158.1218,132.1168,111.1292,87.10651,64.76415,60.84779,40.9736,14.05294,-6.351078,-32.36005,-53.18496,-76.95537,-99.75211
2030000000.0,-133.9861,-153.7157,-181.8074,158.0632,132.2053,111.3352,87.33377,64.89114,60.77762,40.81222,13.77377,-6.403814,-32.22445,-53.07532,-76.78063,-99.69991
2031000000.0,-133.8932,-153.7285,-181.7347,158.0529,132.544,111.5453,87.64263,65.22482,60.76614,40.99978,13.92001,-6.465297,-31.97738,-52.8663,-76.45195,-99.50591
2032000000.0,-133.8431,-153.5529,-181.6572,158.2117,132.7404,111.8653,88.03127,65.59604,60.73996,41.05509,13.87652,-6.243148,-31.75095,-52.69598,-76.11978,-99.17014
2033000000.0,-133.7011,-153.4188,-181.6057,158.3937,133.1725,112.1768,88.57049,65.89404,60.89256,41.10379,13.8662,-6.093288,-31.30555,-52.28996,-75.69215,-98.78202
2034000000.0,-133.5141,-153.274,-181.4512,158.627,133.6631,112.5609,89.13885,66.32102,60.91988,41.19846,13.81985,-5.992992,-30.89239,-52.06698,-75.18341,-98.41628
2035000000.0,-133.2669,-152.9481,-181.2834,158.9464,134.2307,113.1064,89.64536,66.85358,61.19337,41.51338,14.11969,-5.707995,-30.48476,-51.53122,-74.55573,-97.95015
2036000000.0,-133.1699,-152.8632,-181.2071,159.0385,134.6429,113.429,90.12896,67.1767,61.06841,41.4645,14.07865,-5.566818,-30.14192,-51.22893,-74.21748,-97.76747
2037000000.0,-133.0966,-152.9001,-181.1333,159.1617,134.9559,113.7702,90.51598,67.47106,61.09103,41.54567,14.14473,-5.536845,-29.71166,-50.86428,-74.01109,-97.65536
2038000000.0,-132.9433,-152.6631,-181.0048,159.4027,135.5719,114.3524,90.94594,67.94563,61.1552,41.6091,14.3346,-5.258235,-29.26405,-50.42992,-73.48562,-97.12701
2039000000.0,-132.8285,-152.4403,-180.7344,159.7623,135.966,114.8627,91.43549,68.24269,61.38943,41.76377,14.42416,-5.117262,-28.90684,-50.04152,-73.16639,-96.89355
2040000000.0,-132.705,-152.4574,-180.6627,159.8616,136.3046,115.1427,91.77215,68.39272,61.32497,41.74133,14.43799,-5.005395,-28.57673,-49.79015,-73.09406,-96.79018
2041000000.0,-132.6223,-152.1554,-180.4397,160.122,136.7426,115.6288,92.10695,68.809,61.34789,41.94765,14.64404,-4.755445,-28.20298,-49.50927,-72.59222,-96.505
2042000000.0,-132.6472,-152.3619,-180.4549,160.0969,136.8123,115.6418,92.19054,68.91251,61.30517,41.80549,14.56947,-4.817341,-28.01556,-49.30349,-72.74152,-96.48862
2043000000.0,-132.8251,-152.4777,-180.5906,160.0673,137.0098,115.7563,92.2439,68.90115,61.1786,41.70368,14.41168,-4.87812,-28.12782,-49.33,-72.60416,-96.5109
2044000000.0,-132.8883,-152.5575,-180.6116,160.0049,136.9881,115.9131,92.19888,68.87555,60.90508,41.40202,14.35537,-4.987363,-28.1533,-49.50917,-72.74387,-96.69213
2045000000.0,-133.1828,-152.8083,-180.7066,159.9208,136.8641,115.6704,92.02628,68.74902,60.69254,41.19357,14.19255,-5.104647,-28.26244,-49.53175,-72.95064,-96.84092
2046000000.0,-133.2695,-152.9049,-180.7922,159.8228,136.8654,115.6646,91.93918,68.6386,60.53733,40.98454,14.11609,-5.146868,-28.45591,-49.63295,-73.21388,-96.92619
2047000000.0,-133.5863,-153.3442,-181.0683,159.4879,136.4306,115.3737,91.52644,68.32799,60.21849,40.6143,13.82185,-5.549564,-28.79376,-50.04269,-73.72813,-97.41376
2048000000.0,-133.9198,-153.5926,-181.2445,159.2475,136.2543,115.1756,91.20038,67.93034,59.81009,40.3563,13.59018,-5.902919,-29.23904,-50.38448,-74.07838,-97.77331
2049000000.0,-134.3547,-154.2112,-181.712,158.8801,135.6527,114.6373,90.54954,67.34702,59.21833,39.63247,13.13665,-6.364717,-29.80093,-51.11347,-74.80649,-98.40994
2050000000.0,-134.9241,-154.6615,-182.0829,158.2987,135.0865,114.0223,89.92181,66.71172,58.69059,39.09925,12.70763,-6.92179,-30.51465,-51.51519,-75.48812,-99.00521
2051000000.0,-135.4282,-155.2043,-182.4883,157.9429,134.4152,113.5152,89.21355,66.05567,58.12455,38.49323,12.27668,-7.431681,-31.162,-52.25638,-76.2487,-99.7812
2052000000.0,-136.0862,-155.8088,-182.9677,157.3469,133.7401,112.7917,88.44706,65.27701,57.60593,37.9341,11.71147,-8.102142,-32.00152,-53.13464,-76.99067,-100.5258
2053000000.0,-136.6772,-156.5155,-183.5026,156.6936,132.8339,111.9564,87.48428,64.53249,57.01093,37.29333,11.08574,-8.662852,-32.9086,-53.88667,-78.06944,-101.3182
2054000000.0,-137.3474,-157.3373,-184.2011,155.9917,131.9155,111.0234,86.47291,63.57772,56.17138,36.4344,10.4103,-9.643791,-33.99651,-55.05086,-79.24139,-102.259
2055000000.0,-138.0469,-157.9332,-184.7608,155.246,130.9888,110.1688,85.38261,62.7688,55.43065,35.75711,9.686566,-10.30081,-34.90274,-55.89791,-80.13231,-103.2745
2056000000.0,-138.6153,-158.565,-185.2064,154.7307,130.2165,109.3517,84.52917,61.97106,54.90865,35.13269,9.218254,-10.852,-35.77616,-56.79257,-81.06382,-103.9484
2057000000.0,-139.2058,-159.1459,-185.7662,153.989,129.3211,108.4977,83.74252,61.02717,54.24406,34.38715,8.498529,-11.69215,-36.7808,-57.634,-82.05038,-104.925
2058000000.0,-139.9707,-160.0382,-186.677,153.2291,128.0872,107.4421,82.60228,60.26643,53.29457,33.5661,7.726506,-12.56805,-37.9147,-58.74044,-83.2061,-105.8492
2059000000.0,-140.6655,-160.6696,-187.2566,152.3689,127.2637,106.4833,81.65953,59.26491,52.67092,32.76451,7.015121,-13.40672,-38.8674,-59.83267,-84.11632,-106.7442
2060000000.0,-141.1433,-161.2037,-187.7348,151.9232,126.3939,105.7315,80.92603,58.64317,52.09955,32.2676,6.42578,-14.02644,-39.69485,-60.57153,-84.90195,-107.4507
2061000000.0,-141.9968,-162.0298,-188.5721,150.9282,125.4197,104.7491,79.87201,57.7575,51.17334,31.21396,5.443518,-15.09935,-40.97416,-61.57731,-85.95385,-108.3717
2062000000.0,-142.414,-162.5996,-189.1138,150.4677,124.6651,104.0017,79.29508,57.10966,50.70447,30.70201,4.899632,-15.52125,-41.66099,-62.38637,-86.55872,-109.0005
2063000000.0,-142.9552,-163.1023,-189.7111,149.7713,123.9895,103.3664,78.60481,56.53717,50.04352,30.12689,4.25474,-16.286,-42.39608,-63.13105,-87.33846,-109.7459
2064000000.0,-143.5193,-163.588,-190.2159,149.147,123.3357,102.7533,78.11483,55.94699,49.62885,29.59836,3.767754,-16.82507,-43.03054,-63.76898,-87.92226,-110.1906
2065000000.0,-143.9623,-164.0354,-190.8253,148.7458,122.7817,102.1662,77.53761,55.40032,49.11551,29.10818,3.09104,-17.51935,-43.75264,-64.42877,-88.52022,-110.8092
2066000000.0,-144.3783,-164.4686,-191.2672,148.207,122.2927,101.6472,77.13434,55.13429,48.71758,28.60358,2.662947,-17.98839,-44.18029,-64.96272,-88.98425,-111.2343
2067000000.0,-144.6781,-164.6628,-191.4125,148.008,121.9536,101.3396,76.90329,54.81522,48.3538,28.40829,2.116832,-18.33269,-44.56017,-65.34394,-89.16836,-111.4668
2068000000.0,-145.0315,-165.0155,-191.964,147.5909,121.7225,100.8591,76.54197,54.49996,47.81911,27.84559,1.692693,-18.91363,-44.93337,-65.68443,-89.57729,-111.992
2069000000.0,-145.1597,-165.1849,-192.2406,147.2578,121.5556,100.7914,76.5717,54.37725,47.57282,27.62562,1.440832,-19.16107,-45.17188,-65.85487,-89.66046,-112.0955
2070000000.0,-145.4177,-165.3566,-192.4202,147.0927,121.4166,100.536,76.57182,54.35261,47.49353,27.47356,1.000612,-19.35189,-45.34667,-66.06175,-89.70143,-112.1341
2071000000.0,-145.5952,-165.5437,-192.749,146.9118,121.2779,100.4338,76.50439,54.27551,47.10559,27.15,0.8319988,-19.68312,-45.44094,-66.32605,-89.79134,-112.2306
2072000000.0,-145.6681,-165.5329,-192.9318,146.7402,121.3417,100.5284,76.6916,54.32181,47.0191,27.11404,0.5946283,-19.74287,-45.36553,-66.29244,-89.65656,-112.3172
2073000000.0,-145.6864,-165.6214,-192.9324,146.9512,121.4137,100.5434,76.84252,54.45898,46.96328,26.91125,0.3716157,-19.95081,-45.30046,-66.28573,-89.56473,-112.2093
2074000000.0,-145.8001,-165.7164,-193.1511,146.5995,121.7121,100.7806,77.12873,54.67892,46.80799,26.92601,0.1935943,-20.01505,-45.28459,-66.19782,-89.44881,-112.1716
2075000000.0,-145.6843,-165.5243,-193.2116,146.7683,121.904,100.991,77.50611,54.98322,46.79424,26.95026,0.1883381,-19.90565,-44.91683,-65.8434,-88.96706,-111.7758
2076000000.0,-145.5189,-165.4388,-193.1016,146.8706,122.4263,101.403,77.95863,55.41063,46.71209,27.06871,0.2266054,-19.79997,-44.60618,-65.6088,-88.6462,-111.5656
2077000000.0,-145.3873,-165.2092,-192.8434,147.1025,122.784,101.8105,78.54984,55.85101,46.97501,27.13984,0.3003891,-19.62109,-44.12698,-65.19659,-88.08353,-111.1261
2078000000.0,-145.4805,-165.1874,-192.9454,147.227,123.1006,102.0603,78.87264,55.99151,46.88293,27.17443,0.2272377,-19.56068,-43.96762,-64.92849,-87.74004,-110.8869
2079000000.0,-145.4545,-165.2036,-192.9566,147.1292,123.3628,102.3565,79.22998,56.22885,46.76921,27.14015,0.1320993,-19.75558,-43.59468,-64.73386,-87.55178,-110.7536
2080000000.0,-145.289,-165.0428,-192.7957,147.4996,123.9493,102.7945,79.70875,56.68819,46.84843,27.24825,0.2125207,-19.39748,-43.16959,-64.31714,-87.08685,-110.3502
2081000000.0,-145.2852,-164.9897,-192.6943,147.5771,124.2362,103.2325,80.05316,56.93006,46.86464,27.13078,0.2145041,-19.23341,-42.86059,-63.9421,-86.89146,-110.1643
2082000000.0,-145.2749,-164.9171,-192.5939,147.8499,124.6475,103.5759,80.4772,57.22251,46.95152,27.29928,0.2580655,-19.12054,-42.52166,-63.64152,-86.38548,-109.9126
2083000000.0,-145.1489,-164.8083,-192.6196,147.9327,124.9192,103.8676,80.69437,57.44958,46.77759,27.23993,0.3129656,-19.01557,-42.38103,-63.37505,-86.28497,-109.7234
2084000000.0,-145.1156,-164.7808,-192.426,148.1444,125.3671,104.292,81.05388,57.76091,46.8812,27.25238,0.4309888,-18.97572,-41.95093,-63.17161,-86.05183,-109.5341
2085000000.0,-145.2302,-164.8079,-192.487,148.1014,125.4299,104.2953,81.04393,57.75231,46.8314,27.17828,0.3285912,-18.9839,-41.89246,-63.09901,-86.03094,-109.6468
2086000000.0,-145.4191,-165.0306,-192.6241,147.9979,125.4707,104.2377,80.93177,57.6528,46.47921,26.9481,0.204495,-19.17829,-41.94693,-63.10212,-86.08189,-109.7362
2087000000.0,-145.6107,-165.2741,-192.7052,147.9227,125.3672,104.333,80.93907,57.50966,46.23886,26.76707,0.02496317,-19.25019,-41.97472,-63.26144,-86.21706,-109.9059
2088000000.0,-145.7077,-165.3575,-192.5833,147.9536,125.4651,104.3736,80.86681,57.57762,46.22916,26.64693,0.004585752,-19.32481,-42.07343,-63.28238,-86.29621,-109.8513
2089000000.0,-145.9454,-165.7413,-192.8702,147.7463,125.3106,104.189,80.6768,57.29487,45.91536,26.30544,-0.1539061,-19.4956,-42.32505,-63.5173,-86.6093,-110.1836
2090000000.0,-146.2444,-166.0701,-193.0904,147.4632,124.937,103.9534,80.28793,56.88593,45.50922,25.82531,-0.5199747,-19.91998,-42.74561,-63.84768,-87.27246,-110.6018
2091000000.0,-146.5903,-166.4723,-193.4272,147.0447,124.5265,103.587,79.81174,56.55854,45.08186,25.40817,-0.7357228,-20.30658,-43.11206,-64.28703,-87.56023,-111.0615
2092000000.0,-146.9917,-166.8253,-193.7505,146.7415,124.0865,103.2594,79.23196,55.96338,44.62245,24.95243,-1.145857,-20.67632,-43.64075,-64.73678,-88.28022,-111.5883
2093000000.0,-147.3528,-167.1317,-193.8219,146.4932,123.6699,102.8593,78.81448,55.60862,44.33636,24.60387,-1.288766,-20.95436,-44.28598,-65.10312,-88.89845,-111.9644
2094000000.0,-147.8129,-167.7636,-194.304,146.0614,123.0343,102.1655,78.02731,54.97207,43.80746,24.08023,-1.868901,-21.45952,-44.88062,-65.79325,-89.52128,-112.7268
2095000000.0,-148.5024,-168.3854,-194.8445,145.4068,122.2941,101.3972,77.11636,54.12414,43.13115,23.33018,-2.385115,-22.25412,-45.66715,-66.64432,-90.42236,-113.5591
2096000000.0,-149.0772,-168.9078,-195.2801,144.8371,121.5139,100.7113,76.37149,53.31611,42.51244,22.67179,-2.998273,-22.81187,-46.50727,-67.33787,-91.34167,-114.4148
2097000000.0,-149.362,-169.5523,-195.738,144.4526,120.8432,100.0312,75.55735,52.8487,42.06208,22.10726,-3.400227,-23.40394,-47.34873,-68.07014,-92.10267,-115.0121
2098000000.0,-149.8857,-170.0052,-196.0912,143.9105,120.1331,99.30619,74.79187,52.06752,41.62523,21.60351,-3.881719,-23.91193,-48.10741,-68.8743,-92.88364,-115.7681
2099000000.0,-150.5641,-170.5965,-196.6724,143.265,119.176,98.38156,74.00048,51.30997,40.88053,21.02867,-4.477034,-24.5879,-48.97491,-69.7691,-93.93707,-116.4944
2100000000.0,-151.2182,-171.245,-197.3294,142.4858,118.3158,97.5484,72.92835,50.46429,40.26385,20.30587,-5.177444,-25.22511,-49.89422,-70.71478,-94.89558,-117.4292
2101000000.0,-151.7962,-171.978,-197.8797,141.8638,117.3617,96.67039,72.03085,49.69408,39.51643,19.5004,-5.755488,-26.04362,-50.9323,-71.65475,-95.73971,-118.2871
2102000000.0,-152.4513,-172.476,-198.453,141.2036,116.6494,95.84206,71.11801,48.94756,38.95636,18.95917,-6.417854,-26.78854,-51.86667,-72.51379,-96.66801,-119.1536
2103000000.0,-152.8745,-173.0358,-198.9714,140.668,115.7342,95.09967,70.44312,48.22598,38.38292,18.43642,-7.006316,-27.48178,-52.63159,-73.34892,-97.42614,-119.8702
2104000000.0,-153.3882,-173.5542,-199.4355,140.0854,115.0061,94.39158,69.77254,47.65705,37.9243,17.81597,-7.544485,-28.0358,-53.44822,-74.0727,-98.22877,-120.3454
2105000000.0,-154.0316,-174.1396,-200.0506,139.3419,114.1151,93.51132,69.01985,46.91054,37.1497,17.18581,-8.218632,-28.65438,-54.39498,-74.9584,-99.02345,-121.2236
2106000000.0,-154.319,-174.3666,-200.5715,138.8422,113.6951,93.01364,68.44579,46.36445,36.82165,16.84225,-8.651171,-29.19481,-54.91305,-75.50887,-99.52876,-121.6171
2107000000.0,-154.8055,-174.9664,-200.9645,138.3113,112.9644,92.35423,67.92155,45.8459,36.37365,16.17751,-9.206601,-29.90184,-55.64547,-76.22656,-100.0795,-122.3115
2108000000.0,-155.0876,-175.2044,-201.3312,138.0016,112.608,92.02566,67.6342,45.61919,36.03331,15.8972,-9.630656,-30.27213,-55.99651,-76.71194,-100.5416,-122.634
2109000000.0,-155.5064,-175.7817,-202.0295,137.3198,112.0196,91.36075,67.05192,45.00172,35.40862,15.29408,-10.3781,-30.84395,-56.7623,-77.29919,-101.071,-123.1866
2110000000.0,-155.9386,-176.005,-202.3169,137.0499,111.7232,90.9864,66.8722,44.72344,35.16716,15.00355,-10.63426,-31.33842,-57.0301,-77.64961,-101.3541,-123.4913
2111000000.0,-156.1017,-176.3334,-202.6868,136.7482,111.3392,90.73711,66.53938,44.46032,34.75455,14.58431,-11.04841,-31.55273,-57.31762,-78.05989,-101.6115,-123.8109
2112000000.0,-156.4457,-176.5874,-202.9728,136.527,111.2111,90.54317,66.45039,44.35555,34.37593,14.39411,-11.41355,-32.05466,-57.74305,-78.2921,-101.8003,-123.8941
2113000000.0,-156.6584,-176.7121,-203.2578,136.2671,111.0069,90.29877,66.37777,44.1844,34.18311,14.17089,-11.81043,-32.25025,-57.69445,-78.41535,-101.8493,-124.1677
2114000000.0,-156.814,-176.9414,-203.4686,135.9053,110.9405,90.30318,66.39348,44.12477,33.95406,13.91635,-12.0722,-32.56124,-57.94098,-78.61569,-102.0175,-124.3048
2115000000.0,-156.929,-176.9166,-203.6563,135.9633,111.0041,90.24883,66.46296,44.30442,33.77277,13.83462,-12.33804,-32.60651,-57.8445,-78.58632,-101.8166,-124.2634
2116000000.0,-157.1077,-177.1407,-203.9415,135.8037,110.9925,90.2117,66.65379,44.20411,33.57367,13.59121,-12.57672,-32.85087,-58.00755,-78.78571,-101.7746,-124.2066
2117000000.0,-157.0789,-176.9973,-203.859,135.8656,111.2723,90.49241,66.96611,44.51046,33.6454,13.73081,-12.53198,-32.9007,-57.72055,-78.58016,-101.4603,-123.9815
2118000000.0,-157.2021,-177.089,-204.0638,135.7179,111.4885,90.50794,67.1801,44.63463,33.44304,13.42366,-12.72898,-32.91361,-57.63255,-78.46055,-101.3411,-123.9968
2119000000.0,-157.1408,-176.9717,-204.0016,136.005,111.7722,90.92435,67.61457,45.1058,33.50853,13.63228,-12.75261,-32.9167,-57.32853,-78.19065,-100.9422,-123.5902
