Board # 3Port # 4
s21 unwrapped phase measurement
"Sun, 18 Sep 2016 22:37:31 +0000"
Freq(Hz),phase0 (Deg),phase1 (Deg),phase2 (Deg),phase3 (Deg),phase4 (Deg),phase5 (Deg),phase6 (Deg),phase7 (Deg),phase8 (Deg),phase9 (Deg),phase10 (Deg),phase11 (Deg),phase12 (Deg),phase13 (Deg),phase14 (Deg),phase15 (Deg)
2000000000.0,-121.0415,-140.7359,-169.0204,171.2534,146.7989,125.8202,102.0263,78.81776,74.16817,54.67865,27.41446,7.757578,-16.64935,-37.83251,-61.18707,-85.17368
2001000000.0,-121.2197,-140.8415,-169.0121,171.1797,146.8862,125.8134,102.0367,78.89024,74.08985,54.43468,27.29003,7.595556,-16.70605,-37.8658,-61.30528,-85.22586
2002000000.0,-121.3206,-140.9998,-169.0362,171.2538,146.916,125.8418,102.0079,78.82171,73.94019,54.35171,27.30476,7.575419,-16.80678,-37.97782,-61.3854,-85.24224
2003000000.0,-121.3695,-141.0049,-169.1626,171.1889,146.8507,125.9054,101.8611,78.88668,73.8122,54.18973,27.23969,7.411399,-16.80882,-37.93964,-61.49351,-85.36422
2004000000.0,-121.7587,-141.5099,-169.3554,170.8712,146.5591,125.6242,101.5754,78.52236,73.36063,53.91737,26.94616,7.052847,-17.1944,-38.34172,-62.01815,-85.85232
2005000000.0,-122.0451,-141.7287,-169.5783,170.5633,146.2645,125.2963,101.0952,78.12046,72.93401,53.47577,26.66254,6.764373,-17.64476,-38.88375,-62.54254,-86.17607
2006000000.0,-122.6564,-142.4547,-170.0532,170.013,145.5676,124.7084,100.4765,77.41336,72.34247,52.73871,26.14566,6.18037,-18.32414,-39.29737,-63.31011,-86.94723
2007000000.0,-123.0926,-142.8806,-170.3649,169.6437,145.1822,124.2723,99.79058,76.8864,71.89395,52.20998,25.86572,5.731039,-18.93924,-39.97943,-63.95932,-87.46838
2008000000.0,-123.8671,-143.7291,-171.1573,168.7981,144.0895,123.3572,98.72134,75.9075,70.93947,51.2974,24.87429,4.815569,-20.06269,-40.93189,-65.09562,-88.51788
2009000000.0,-124.6862,-144.6293,-171.8197,168.1405,143.1518,122.3742,97.78871,74.90474,70.24203,50.47015,24.25337,4.056918,-21.00215,-41.83289,-66.14043,-89.42718
2010000000.0,-125.5618,-145.5801,-172.6226,167.2759,142.0681,121.342,96.62234,73.94426,69.42133,49.51259,23.38851,3.134,-22.16957,-43.03371,-67.38456,-90.5091
2011000000.0,-126.4894,-146.4851,-173.4754,166.3497,141.0201,120.2417,95.47694,72.81733,68.41184,48.61082,22.51953,2.216044,-23.38778,-44.15963,-68.46639,-91.66577
2012000000.0,-127.4315,-147.2788,-174.2931,165.4431,139.8978,118.9906,94.17611,71.67619,67.44684,47.6146,21.53866,1.066206,-24.51178,-45.41513,-69.87749,-92.78131
2013000000.0,-128.4259,-148.3101,-175.2183,164.3172,138.4656,117.8744,92.94908,70.44524,66.32828,46.56709,20.54123,-0.06795768,-26.04673,-46.69858,-71.15568,-94.02631
2014000000.0,-129.2679,-149.2867,-176.0063,163.4494,137.3673,116.7841,91.7521,69.4589,65.45248,45.57921,19.7272,-0.9532609,-27.18573,-47.96151,-72.41143,-95.10771
2015000000.0,-130.2581,-150.2817,-177.0347,162.4487,136.0331,115.3881,90.63281,68.27347,64.4473,44.59906,18.67526,-2.009834,-28.55462,-49.21528,-73.69623,-96.25268
2016000000.0,-131.2232,-151.1368,-177.9729,161.462,134.9163,114.3608,89.40839,67.18755,63.62513,43.48915,17.61752,-3.125425,-29.81331,-50.49154,-74.96311,-97.53173
2017000000.0,-132.164,-152.2133,-178.9349,160.3848,133.6595,113.1339,88.22289,66.10762,62.5801,42.618,16.76788,-4.3006,-31.09399,-51.66704,-76.07265,-98.63936
2018000000.0,-132.8858,-152.9588,-179.7319,159.4582,132.6651,112.0648,87.23436,65.122,61.70162,41.67157,15.68017,-5.234977,-32.18233,-52.67381,-77.10458,-99.60516
2019000000.0,-133.6847,-153.8515,-180.5203,158.6376,131.6788,111.1609,86.26396,64.28621,60.90744,40.72768,14.88802,-6.25023,-33.22342,-53.7741,-78.09915,-100.5191
2020000000.0,-134.4389,-154.5377,-181.3319,157.7695,130.812,110.2975,85.52756,63.55086,60.15248,39.95395,14.09487,-7.043002,-34.15611,-54.68691,-78.98213,-101.3195
2021000000.0,-135.1683,-155.2486,-182.0859,156.9693,129.9098,109.4357,84.5831,62.71979,59.28527,39.15169,13.15454,-8.01767,-35.05942,-55.6393,-79.76168,-102.1168
2022000000.0,-135.6168,-155.6459,-182.6137,156.5251,129.336,108.8022,84.20702,62.25021,58.743,38.72048,12.59726,-8.469125,-35.62914,-56.16962,-80.2399,-102.6102
2023000000.0,-136.0145,-156.0743,-182.8982,156.0449,129.0222,108.4049,83.81747,61.91181,58.46368,38.24919,12.0832,-8.977921,-36.13434,-56.5931,-80.68385,-103.0182
2024000000.0,-136.2729,-156.5962,-183.4108,155.6428,128.5692,108.0026,83.50054,61.42031,57.90689,37.75758,11.57627,-9.466531,-36.66886,-57.17047,-81.02291,-103.4955
2025000000.0,-136.7283,-156.8345,-183.9223,155.1965,128.1368,107.4919,83.01754,61.10528,57.43688,37.3509,10.99364,-9.85161,-37.08157,-57.66346,-81.40729,-103.7984
2026000000.0,-136.9933,-157.0314,-184.2262,154.9968,127.9432,107.4461,83.12272,61.01576,57.15306,37.0837,10.73356,-10.34768,-37.25888,-57.89049,-81.57747,-103.9839
2027000000.0,-136.977,-157.1128,-184.1961,154.9092,128.0481,107.3972,83.20236,61.08709,57.11849,37.04367,10.59656,-10.39491,-37.17382,-57.89504,-81.43405,-103.8909
2028000000.0,-137.013,-157.0077,-184.3144,154.9381,128.1246,107.4898,83.37541,61.21914,56.96154,36.9728,10.45668,-10.48889,-37.24215,-57.79106,-81.39207,-103.8648
2029000000.0,-136.9653,-156.9492,-184.3544,154.8799,128.2635,107.6529,83.64791,61.49926,56.97692,36.98241,10.2804,-10.39748,-37.02009,-57.67589,-81.25836,-103.6775
2030000000.0,-136.944,-156.8093,-184.3686,154.9219,128.5339,107.7938,83.92812,61.76624,56.945,37.0316,10.30115,-10.34114,-36.77728,-57.44126,-80.88796,-103.5675
2031000000.0,-136.5085,-156.5391,-184.2598,155.2438,129.1018,108.2337,84.54514,62.26004,57.20121,37.18732,10.38439,-10.2546,-36.55117,-57.0724,-80.52721,-103.1334
2032000000.0,-136.3696,-156.2681,-183.943,155.446,129.4931,108.7169,85.14201,62.73446,57.34933,37.48171,10.58913,-9.950219,-35.96067,-56.55814,-79.885,-102.5775
2033000000.0,-135.9096,-155.8522,-183.7179,155.8731,130.2534,109.3651,85.73728,63.36233,57.65253,37.79416,10.79574,-9.701773,-35.32357,-56.13498,-79.22044,-102.097
2034000000.0,-135.5805,-155.6297,-183.3712,156.2545,130.8447,109.9697,86.52483,63.98528,58.03,38.08354,11.08911,-9.294452,-34.72152,-55.5062,-78.53054,-101.5304
2035000000.0,-135.0897,-155.0701,-182.8515,156.8615,131.6766,110.8201,87.345,64.84789,58.31091,38.44805,11.45086,-8.829934,-34.00878,-54.83679,-77.73487,-100.8834
2036000000.0,-134.9701,-154.7685,-182.6566,157.1562,132.2544,111.4209,88.01362,65.18317,58.54622,38.71735,11.73336,-8.553343,-33.33737,-54.29964,-77.25036,-100.452
2037000000.0,-134.5883,-154.4242,-182.3698,157.5182,133.1064,111.9368,88.66131,65.67886,58.80648,38.99656,11.94001,-8.099595,-32.81146,-53.64386,-76.62075,-99.95471
2038000000.0,-134.29,-154.1104,-182.0855,157.9985,133.7346,112.7138,89.29743,66.27092,59.14264,39.37037,12.18388,-7.744688,-32.09647,-53.0252,-75.90268,-99.46324
2039000000.0,-133.9055,-153.6489,-181.5528,158.5871,134.418,113.4431,90.15008,66.95007,59.40764,39.62643,12.66932,-7.236915,-31.47162,-52.39348,-75.28056,-98.93208
2040000000.0,-133.7773,-153.4594,-181.3125,158.8611,134.8618,113.8432,90.49168,67.31424,59.48979,39.80684,12.81364,-6.965292,-31.04673,-51.98763,-74.95216,-98.63386
2041000000.0,-133.4502,-153.11,-180.8976,159.3094,135.5398,114.3854,90.96089,67.73859,59.78842,40.136,13.21904,-6.61076,-30.44674,-51.44895,-74.48508,-98.16806
2042000000.0,-133.3405,-153.0997,-180.7166,159.444,135.8031,114.7571,91.27018,68.05199,59.83305,40.18373,13.35901,-6.366988,-30.21235,-51.35241,-74.37819,-98.11629
2043000000.0,-133.3695,-153.1297,-180.7507,159.5201,135.8877,114.9203,91.42828,68.07536,59.5888,40.11751,13.35781,-6.401513,-30.0591,-51.15906,-74.28512,-97.89815
2044000000.0,-133.4693,-152.9963,-180.7093,159.5725,136.094,115.0004,91.50315,68.20979,59.70411,40.03837,13.28985,-6.39524,-30.19049,-51.15392,-74.30986,-98.04244
2045000000.0,-133.4398,-153.3328,-180.8129,159.4579,135.9896,114.9455,91.25227,67.96829,59.42646,39.84297,13.23396,-6.536992,-30.26534,-51.21294,-74.56393,-98.18565
2046000000.0,-133.693,-153.4603,-180.8495,159.3649,135.8521,114.8578,91.11062,67.8755,59.2752,39.70747,13.06898,-6.676975,-30.4991,-51.4628,-74.79236,-98.33337
2047000000.0,-134.1082,-153.8941,-181.1102,159.0292,135.5624,114.493,90.76083,67.56765,58.82291,39.20992,12.80457,-6.959598,-30.78969,-51.8021,-75.22229,-98.82355
2048000000.0,-134.3799,-154.1773,-181.3501,158.7737,135.1656,114.1965,90.27413,67.12311,58.49522,38.79132,12.4799,-7.384849,-31.41376,-52.24593,-75.87397,-99.18728
2049000000.0,-135.0541,-154.9579,-181.7652,158.2363,134.5605,113.6079,89.45425,66.44762,57.76939,38.10335,11.88067,-8.024554,-32.01181,-52.97631,-76.63355,-100.0116
2050000000.0,-135.6448,-155.5428,-182.3656,157.6373,133.7187,112.7934,88.60955,65.59441,57.21358,37.31754,11.38284,-8.650664,-32.90727,-53.77724,-77.49656,-100.8038
2051000000.0,-136.2807,-156.2571,-182.9137,156.9883,132.8578,112.128,87.68484,64.75892,56.48988,36.71643,10.77648,-9.362108,-33.72827,-54.52918,-78.47701,-101.6553
2052000000.0,-137.0054,-156.9632,-183.5122,156.2753,132.0076,111.1756,86.74424,63.87052,55.71337,35.86967,10.0955,-10.07007,-34.77579,-55.52928,-79.478,-102.6318
2053000000.0,-137.8803,-157.8456,-184.2326,155.4612,130.9842,110.19,85.54137,62.81627,54.85804,35.01687,9.308069,-11.02127,-35.89871,-56.58253,-80.62399,-103.6686
2054000000.0,-138.824,-158.786,-185.1858,154.481,129.6589,108.9782,84.27531,61.62674,53.84224,33.97799,8.336283,-12.00085,-37.16927,-57.85749,-82.07475,-105.0309
2055000000.0,-139.6875,-159.7244,-185.9684,153.654,128.5773,107.8712,83.2025,60.66412,52.97611,32.98791,7.470527,-12.98994,-38.31365,-59.08238,-83.25703,-105.9877
2056000000.0,-140.485,-160.5002,-186.6545,152.7883,127.5549,106.77,82.03404,59.6041,52.24881,32.18531,6.79283,-13.70083,-39.46094,-60.05008,-84.37828,-107.0276
2057000000.0,-141.3179,-161.374,-187.6102,151.8642,126.355,105.7034,80.93685,58.61992,51.21253,31.25145,5.847764,-14.8157,-40.68839,-61.26762,-85.62573,-108.1283
2058000000.0,-142.3001,-162.4197,-188.4403,150.7821,125.0191,104.4136,79.58167,57.42678,50.20462,30.24324,4.706635,-15.92126,-41.99369,-62.57444,-86.85839,-109.2644
2059000000.0,-143.0829,-163.3104,-189.3794,149.8116,123.9064,103.1877,78.51076,56.30282,49.29971,29.34927,3.819687,-17.08542,-43.31253,-63.84673,-88.02366,-110.3361
2060000000.0,-143.7793,-163.9412,-190.0788,149.0155,122.9917,102.2934,77.58678,55.4938,48.73394,28.60943,3.115346,-17.85366,-44.22164,-64.79662,-89.00105,-111.2791
2061000000.0,-144.8879,-165.0141,-191.1644,147.8569,121.6032,101.1172,76.33453,54.41619,47.53339,27.45842,1.970265,-19.02892,-45.55976,-66.10886,-90.33102,-112.4218
2062000000.0,-145.4569,-165.5922,-191.6807,147.2931,120.8555,100.2102,75.66783,53.77781,47.00261,26.90803,1.216762,-19.79307,-46.49445,-66.88113,-91.01418,-113.1601
2063000000.0,-146.081,-166.3656,-192.5185,146.4772,120.0793,99.43197,74.94822,52.90772,46.2037,26.03417,0.4599516,-20.4714,-47.39231,-67.69578,-91.77245,-113.8409
2064000000.0,-146.6432,-166.9517,-193.1777,145.789,119.3302,98.74867,74.27485,52.33505,45.65796,25.48311,-0.2368603,-21.27412,-48.0826,-68.47747,-92.42522,-114.5422
2065000000.0,-147.301,-167.4645,-193.6896,145.2458,118.5486,98.1528,73.76881,51.85697,45.02069,24.82929,-0.8388069,-21.94435,-48.77782,-69.24437,-93.05847,-115.1822
2066000000.0,-147.5973,-167.8119,-194.2049,144.6827,118.3416,97.67324,73.27247,51.42809,44.50945,24.2947,-1.387682,-22.45779,-49.1585,-69.71355,-93.44959,-115.5917
2067000000.0,-147.9647,-168.0118,-194.5919,144.4703,117.97,97.33268,73.12978,51.17586,44.19015,24.13259,-1.759211,-22.84984,-49.58541,-70.09055,-93.75385,-115.9312
2068000000.0,-148.2202,-168.4754,-195.0159,143.9505,117.6949,97.02446,72.84435,50.91237,43.77748,23.61235,-2.364693,-23.27401,-50.11559,-70.54635,-94.06519,-116.2678
2069000000.0,-148.4532,-168.5647,-195.1528,143.7718,117.4969,96.90595,72.87552,50.87851,43.57532,23.44136,-2.55534,-23.49952,-50.0646,-70.60727,-94.15254,-116.5504
2070000000.0,-148.4584,-168.5785,-195.3569,143.7909,117.576,96.81931,72.95403,50.82496,43.38333,23.29233,-2.697102,-23.59117,-50.20795,-70.71777,-94.05054,-116.4016
2071000000.0,-148.6621,-168.6999,-195.6141,143.5858,117.6336,96.77062,73.00625,50.89584,43.34663,23.2252,-3.103238,-23.86807,-50.18892,-70.66236,-93.96562,-116.4197
2072000000.0,-148.5614,-168.5538,-195.5234,143.6245,117.8277,97.05154,73.23775,51.12704,43.41138,23.32011,-3.017748,-23.77757,-49.9204,-70.69509,-93.79642,-116.0857
2073000000.0,-148.4676,-168.4638,-195.4449,143.7485,118.1042,97.31705,73.68467,51.44463,43.37191,23.30866,-3.11335,-23.73603,-49.69694,-70.39727,-93.38379,-115.9632
2074000000.0,-148.2439,-168.3248,-195.4169,143.9163,118.4418,97.63664,74.24313,51.82758,43.47775,23.36193,-3.053767,-23.67755,-49.35178,-70.10532,-93.07353,-115.5972
2075000000.0,-148.1679,-168.0458,-195.266,144.1607,119.0102,98.19228,74.8316,52.38129,43.58065,23.66253,-2.966903,-23.39927,-48.86813,-69.60272,-92.48455,-115.0832
2076000000.0,-147.7685,-167.6902,-194.9317,144.6038,119.615,98.7196,75.59258,52.89015,43.88921,23.98653,-2.629218,-22.96181,-48.32158,-69.12284,-91.83443,-114.5429
2077000000.0,-147.3161,-167.2488,-194.5503,145.0284,120.2938,99.49229,76.26637,53.69539,44.35785,24.37472,-2.420381,-22.60163,-47.56981,-68.38391,-91.1984,-113.9078
2078000000.0,-147.1087,-167.1466,-194.3348,145.4025,120.9568,100.021,76.98499,54.17133,44.41416,24.5641,-2.135828,-22.31973,-47.11732,-67.9735,-90.58592,-113.4182
2079000000.0,-146.971,-166.7839,-194.2642,145.6403,121.4184,100.4159,77.58341,54.56881,44.49286,24.68609,-2.061291,-22.12333,-46.60876,-67.46623,-90.10789,-113.0372
2080000000.0,-146.5161,-166.4115,-193.8103,146.1154,122.2907,101.2584,78.25497,55.20922,44.94747,25.14663,-1.628363,-21.66481,-45.9278,-66.72213,-89.3946,-112.5828
2081000000.0,-146.3804,-166.1304,-193.4952,146.5819,122.8675,101.8072,78.80984,55.69254,45.0971,25.31093,-1.467832,-21.35658,-45.41189,-66.32352,-88.86309,-112.1047
2082000000.0,-145.9909,-165.7941,-193.1893,146.9882,123.398,102.4592,79.41528,56.15976,45.26358,25.54957,-1.08582,-21.09928,-44.82774,-65.56589,-88.34198,-111.4917
2083000000.0,-145.8065,-165.6288,-192.9762,147.1657,123.9965,102.8397,79.83201,56.71614,45.47285,25.78922,-1.060763,-20.73806,-44.39572,-65.30872,-87.9084,-111.3064
2084000000.0,-145.6108,-165.3847,-192.5688,147.6235,124.4682,103.4504,80.25323,57.05494,45.52442,25.83024,-0.6995682,-20.40609,-43.87408,-64.78442,-87.49792,-110.8597
2085000000.0,-145.5597,-165.3126,-192.4216,147.7567,124.6928,103.6198,80.42989,57.18845,45.56059,25.94964,-0.5730073,-20.30427,-43.51362,-64.59023,-87.39166,-110.8694
2086000000.0,-145.748,-165.4326,-192.4193,147.6941,124.8516,103.7272,80.4744,57.16102,45.44084,25.73117,-0.6913137,-20.38148,-43.61369,-64.55465,-87.43292,-110.7978
2087000000.0,-145.8599,-165.5637,-192.4861,147.7719,124.821,103.7876,80.35117,57.07521,45.33494,25.63326,-0.8047358,-20.4029,-43.59998,-64.65949,-87.51469,-110.9247
2088000000.0,-145.8542,-165.5748,-192.4511,147.8126,124.8263,103.8487,80.49268,57.14459,45.22951,25.47543,-0.7227507,-20.47524,-43.56975,-64.64297,-87.68636,-110.9896
2089000000.0,-146.0114,-165.8669,-192.7138,147.5187,124.5443,103.659,80.12461,56.87947,44.89276,25.20621,-0.8937145,-20.67503,-43.9014,-64.87607,-87.90343,-111.2571
2090000000.0,-146.5746,-166.3299,-192.9262,147.1833,124.2855,103.2363,79.70778,56.46649,44.39313,24.76973,-1.239105,-21.00004,-44.35638,-65.27766,-88.45879,-111.774
2091000000.0,-146.9146,-166.812,-193.2902,146.8128,123.7888,102.7531,79.11492,55.90587,44.00823,24.18278,-1.700435,-21.48361,-44.83102,-65.83931,-89.02752,-112.2595
2092000000.0,-147.4281,-167.3156,-193.6276,146.319,123.1505,102.2593,78.38627,55.26092,43.39685,23.66559,-2.228648,-22.04078,-45.57794,-66.40427,-89.84311,-113.0591
2093000000.0,-147.8061,-167.7353,-193.995,146.0316,122.5634,101.8386,77.80952,54.65153,42.97146,23.21987,-2.522692,-22.42599,-46.08474,-66.93505,-90.47242,-113.5964
2094000000.0,-148.586,-168.4527,-194.6021,145.3133,121.701,101.0302,76.82944,53.88405,42.27306,22.32574,-3.151263,-23.18483,-47.06714,-67.86324,-91.53961,-114.5292
2095000000.0,-149.3808,-169.362,-195.3327,144.5712,120.7759,100.0352,75.73883,52.90533,41.3941,21.5327,-3.865114,-24.04758,-48.02096,-68.87471,-92.56252,-115.4487
2096000000.0,-150.1635,-170.0546,-196.0759,143.7666,119.7072,99.03308,74.64462,51.94033,40.66417,20.73096,-4.569374,-24.87247,-49.24163,-69.83159,-93.67635,-116.5173
2097000000.0,-150.8145,-170.8083,-196.6541,143.0531,118.8271,98.15985,73.66582,50.96491,39.89601,20.01744,-5.24549,-25.61938,-50.19955,-70.98061,-94.78165,-117.4553
2098000000.0,-151.5148,-171.5612,-197.2997,142.3253,117.7964,97.0212,72.59042,50.09733,39.2376,19.14564,-5.958836,-26.33677,-51.25533,-72.02409,-95.88102,-118.3825
2099000000.0,-152.3775,-172.3264,-198.14,141.3411,116.7036,95.98785,71.46645,49.05388,38.30604,18.32496,-6.629353,-27.38136,-52.47647,-73.10806,-97.01962,-119.4677
2100000000.0,-153.2912,-173.2218,-198.8531,140.4887,115.503,94.88783,70.31571,47.92783,37.48429,17.35522,-7.654889,-28.22245,-53.64103,-74.24837,-98.27888,-120.6575
2101000000.0,-153.9629,-174.019,-199.6602,139.5781,114.2942,93.80661,69.20636,46.89407,36.59185,16.50937,-8.458736,-29.26997,-54.80309,-75.44292,-99.31481,-121.6176
2102000000.0,-154.8683,-174.9211,-200.5111,138.6284,113.256,92.64534,68.24214,45.91446,35.74362,15.63255,-9.374784,-30.32482,-55.88849,-76.61211,-100.5022,-122.7019
2103000000.0,-155.4369,-175.5728,-201.2675,137.7908,112.3572,91.76049,67.32535,45.17282,35.01199,14.84903,-10.17704,-31.01889,-56.89516,-77.51808,-101.4162,-123.4645
2104000000.0,-156.1581,-176.3072,-201.9125,137.1328,111.3899,90.84389,66.49124,44.3667,34.31109,14.21234,-10.86363,-31.87204,-57.91875,-78.41755,-102.3018,-124.2771
2105000000.0,-156.8678,-177.1103,-202.6923,136.1565,110.4364,89.91724,65.52232,43.51009,33.52459,13.3332,-11.75639,-32.83358,-58.94236,-79.61792,-103.2712,-125.3022
2106000000.0,-157.3613,-177.5553,-203.2327,135.7189,109.767,89.35143,65.01691,42.93513,33.02034,12.80444,-12.29922,-33.33746,-59.68214,-80.15139,-103.7986,-125.7962
2107000000.0,-157.9669,-178.1645,-203.9491,134.9879,109.0492,88.60656,64.34496,42.37331,32.47006,12.14491,-13.04064,-34.04089,-60.39712,-80.87529,-104.5302,-126.4305
2108000000.0,-158.1957,-178.4628,-204.281,134.552,108.6531,88.04159,64.03619,41.96232,31.99972,11.8013,-13.36963,-34.49789,-60.91078,-81.26488,-104.922,-126.9081
2109000000.0,-158.9233,-179.1351,-204.9186,133.9714,108.0641,87.44392,63.40741,41.42394,31.53037,11.18032,-14.16955,-35.21579,-61.58482,-82.09023,-105.613,-127.4953
2110000000.0,-159.1693,-179.338,-205.2726,133.6248,107.7729,87.15723,63.09085,41.13641,31.03731,10.96247,-14.44626,-35.64006,-61.91565,-82.40833,-105.792,-127.7264
2111000000.0,-159.4493,-179.5925,-205.7042,133.3132,107.4712,86.92313,63.02714,40.92567,30.7072,10.65285,-14.92022,-35.92399,-62.14965,-82.7253,-106.0082,-128.0769
2112000000.0,-159.5213,-179.7187,-205.8228,133.0747,107.3437,86.74721,62.98071,40.9161,30.60031,10.35823,-15.17443,-36.25314,-62.39691,-82.91338,-106.1231,-128.0108
2113000000.0,-159.6519,-179.8568,-206.1648,132.9579,107.3775,86.68545,63.05812,40.9269,30.36544,10.17412,-15.39868,-36.37061,-62.41626,-83.00349,-106.1662,-128.1411
2114000000.0,-159.7398,-179.9088,-206.1817,132.9355,107.3909,86.70004,63.22322,40.95994,30.26574,10.15072,-15.58729,-36.61692,-62.36711,-82.97305,-105.9297,-128.1247
2115000000.0,-159.6705,-179.7697,-206.2086,132.9143,107.6256,86.93134,63.54529,41.32222,30.35345,10.28841,-15.62794,-36.5135,-62.21774,-82.812,-105.6553,-127.9352
2116000000.0,-159.6587,-179.7457,-206.3805,132.9274,107.7675,87.07579,63.64248,41.373,30.2156,10.05403,-15.86041,-36.52383,-62.13304,-82.68264,-105.5093,-127.7409
2117000000.0,-159.3644,-179.558,-206.1129,133.2685,108.2873,87.45346,64.26802,41.87802,30.49162,10.36516,-15.6061,-36.24855,-61.73106,-82.34421,-104.9264,-127.3198
2118000000.0,-159.3735,-179.3797,-206.0056,133.282,108.4901,87.80484,64.73438,42.27998,30.54127,10.51325,-15.7509,-36.22903,-61.3158,-82.03804,-104.5741,-127.0779
2119000000.0,-159.0904,-179.0214,-205.7943,133.85,109.2302,88.46832,65.36494,42.81339,30.69036,10.73777,-15.3104,-35.89281,-60.86533,-81.53133,-104.0281,-126.5731
