Board # 5Port # 2
s21 unwrapped phase measurement
"Sun, 18 Sep 2016 22:59:43 +0000"
Freq(Hz),phase0 (Deg),phase1 (Deg),phase2 (Deg),phase3 (Deg),phase4 (Deg),phase5 (Deg),phase6 (Deg),phase7 (Deg),phase8 (Deg),phase9 (Deg),phase10 (Deg),phase11 (Deg),phase12 (Deg),phase13 (Deg),phase14 (Deg),phase15 (Deg)
2000000000.0,-119.2342,-138.5553,-166.9348,173.443,149.6116,128.1747,104.2902,80.41364,77.27598,57.93864,30.5439,11.12281,-13.0542,-34.1421,-57.86902,-82.3763
2001000000.0,-119.1963,-138.7448,-167.0576,173.4721,149.5071,128.3287,104.2364,80.49017,77.09652,57.71618,30.39649,11.06055,-13.03599,-34.04745,-57.80988,-82.55761
2002000000.0,-119.1861,-138.7216,-166.9611,173.5362,149.6898,128.466,104.3292,80.52687,77.06062,57.63181,30.60276,11.08799,-13.00604,-33.96984,-57.86396,-82.39761
2003000000.0,-119.1971,-138.7725,-166.9016,173.5838,149.7094,128.518,104.3398,80.68343,76.9497,57.71183,30.58353,11.16611,-12.9329,-34.09505,-57.92915,-82.50947
2004000000.0,-119.6455,-139.1026,-167.1377,173.4942,149.4973,128.3358,104.1197,80.32995,76.62885,57.34789,30.37063,10.83608,-13.24416,-34.38734,-58.1965,-82.76644
2005000000.0,-119.7794,-139.2815,-167.2401,173.2248,149.2881,128.086,103.7612,80.06192,76.29403,57.0255,30.18229,10.66743,-13.48123,-34.6284,-58.65508,-83.10017
2006000000.0,-120.2091,-139.9011,-167.6253,172.7795,148.7632,127.6068,103.1745,79.50455,75.84517,56.50986,29.86652,10.2092,-14.06159,-35.16341,-59.32025,-83.74332
2007000000.0,-120.3993,-140.1338,-167.7649,172.5132,148.3864,127.1739,102.6747,79.19027,75.59909,56.25037,29.49952,9.867826,-14.59335,-35.73708,-59.84295,-84.11976
2008000000.0,-121.2874,-140.934,-168.4207,171.8335,147.5431,126.4442,101.7826,78.34966,74.85429,55.43984,28.89114,9.060335,-15.55587,-36.44277,-60.78052,-84.93188
2009000000.0,-121.8458,-141.5294,-168.9783,171.202,146.78,125.7463,100.9393,77.68217,74.17412,54.7227,28.24848,8.450164,-16.28794,-37.26293,-61.65063,-85.79729
2010000000.0,-122.6896,-142.3886,-169.5873,170.4663,145.8552,124.7997,100.015,76.69737,73.39613,53.8677,27.57672,7.569654,-17.33551,-38.39161,-62.81696,-86.80762
2011000000.0,-123.4429,-143.1306,-170.2629,169.7349,144.8887,123.8482,98.92258,75.83048,72.54191,53.08908,26.77674,6.69624,-18.40266,-39.36605,-63.79176,-87.62264
2012000000.0,-124.1472,-143.9495,-171.2183,168.8442,143.8032,122.8346,97.87067,74.71086,71.72894,52.2009,25.97395,5.835689,-19.61682,-40.40472,-64.94595,-88.76342
2013000000.0,-125.0552,-144.9241,-171.987,167.8484,142.5767,121.7289,96.63865,73.70358,70.7952,51.15919,25.078,4.797811,-20.81082,-41.72023,-66.29076,-89.89448
2014000000.0,-125.7796,-145.6969,-172.643,167.048,141.5645,120.6895,95.6123,72.81763,69.95688,50.44995,24.34081,3.947391,-21.91819,-42.6978,-67.34701,-90.85528
2015000000.0,-126.786,-146.5563,-173.5601,166.1515,140.3465,119.5893,94.48134,71.69099,69.04034,49.36544,23.32244,2.948823,-23.17261,-43.86323,-68.58909,-91.93299
2016000000.0,-127.5714,-147.512,-174.3724,165.1462,139.2241,118.4043,93.33812,70.74675,68.20103,48.38317,22.37013,1.848227,-24.38745,-45.07369,-69.75172,-92.97805
2017000000.0,-128.4502,-148.3767,-175.3535,164.1499,138.1397,117.3523,92.31972,69.62896,67.23228,47.51979,21.45616,0.8379463,-25.6121,-46.29737,-70.91652,-94.10323
2018000000.0,-129.2061,-149.2833,-176.1479,163.3562,137.162,116.3284,91.28136,68.78525,66.35932,46.60175,20.49603,-0.173046,-26.6763,-47.28028,-71.85246,-94.97876
2019000000.0,-130.1173,-150.1516,-176.9246,162.3763,135.9291,115.3251,90.34173,67.84127,65.5127,45.71453,19.60496,-1.153495,-27.89552,-48.393,-72.89532,-96.028
2020000000.0,-130.717,-150.8253,-177.6833,161.5653,135.1926,114.4699,89.52757,67.02559,64.84342,44.89643,18.85846,-2.110608,-28.89063,-49.32724,-73.73176,-96.74706
2021000000.0,-131.5396,-151.6295,-178.547,160.6405,134.2853,113.6038,88.7017,66.24215,63.97898,44.04537,17.88226,-3.042388,-29.72162,-50.23645,-74.67991,-97.60664
2022000000.0,-131.9706,-152.0153,-179.0659,160.1892,133.7981,113.0379,88.27721,65.71052,63.52854,43.58677,17.29295,-3.531768,-30.39753,-50.97092,-75.19981,-98.03596
2023000000.0,-132.494,-152.482,-179.522,159.7222,133.2142,112.586,87.73002,65.29719,63.03998,43.15473,16.66826,-4.15564,-30.94184,-51.39127,-75.69503,-98.58656
2024000000.0,-132.978,-152.988,-180.0749,159.2026,132.726,112.0962,87.31833,64.86993,62.51278,42.47771,16.11719,-4.692934,-31.39791,-52.04544,-76.02579,-99.19643
2025000000.0,-133.4433,-153.4582,-180.5642,158.6981,132.2056,111.5583,86.8686,64.34809,61.89114,41.98838,15.47322,-5.330526,-31.87245,-52.50092,-76.47081,-99.60018
2026000000.0,-133.7101,-153.7099,-180.9628,158.435,131.8537,111.3313,86.71411,64.1809,61.5355,41.65477,15.07141,-5.715264,-32.21594,-52.84476,-76.80501,-99.77119
2027000000.0,-133.9195,-153.8577,-181.2095,158.2079,131.9635,111.1706,86.74268,64.11142,61.37776,41.36579,14.85354,-5.827688,-32.44233,-52.90923,-76.73251,-99.94895
2028000000.0,-134.0987,-153.8717,-181.5054,158.0338,131.8729,111.0739,86.82449,64.11768,61.12081,41.17551,14.51944,-6.022385,-32.3852,-52.97694,-76.83045,-99.94722
2029000000.0,-134.1445,-154.0399,-181.6027,157.9027,131.993,111.1707,86.96786,64.17408,60.88663,41.04976,14.35558,-6.202442,-32.58816,-53.07413,-76.7927,-100.0511
2030000000.0,-134.1894,-154.102,-181.6106,157.8722,132.1513,111.1731,87.18536,64.35669,60.875,40.99233,14.19788,-6.367113,-32.40024,-53.06515,-76.56126,-99.951
2031000000.0,-133.9332,-153.8763,-181.6327,158.0913,132.3972,111.4977,87.52172,64.6325,60.85348,40.98201,14.21644,-6.324879,-32.13791,-52.70178,-76.17517,-99.54276
2032000000.0,-133.9933,-153.7337,-181.4372,158.2375,132.8147,111.9556,88.03262,64.99384,60.97738,41.17683,14.193,-6.11919,-31.77398,-52.4108,-75.81174,-99.28825
2033000000.0,-133.64,-153.4196,-181.2677,158.4575,133.3363,112.3202,88.56802,65.48371,61.14548,41.33564,14.36774,-5.925993,-31.33443,-51.95096,-75.3051,-99.01246
2034000000.0,-133.4715,-153.122,-181.1287,158.7826,133.7471,112.8894,89.13252,65.86182,61.25169,41.59938,14.54998,-5.595757,-30.84974,-51.62389,-74.66436,-98.42212
2035000000.0,-133.0954,-152.8499,-180.7389,159.2173,134.4907,113.5348,89.88019,66.62814,61.56937,41.93731,14.75177,-5.266122,-30.08696,-50.89925,-74.0566,-97.91589
2036000000.0,-132.8728,-152.6443,-180.6287,159.4744,134.9397,114.0417,90.42715,66.98873,61.68724,42.09439,14.85351,-4.938817,-29.74978,-50.486,-73.65027,-97.56596
2037000000.0,-132.6926,-152.3004,-180.4468,159.8397,135.6005,114.4387,90.86708,67.39063,61.85974,42.16191,15.1296,-4.686728,-29.06185,-50.00981,-73.1981,-97.21018
2038000000.0,-132.3411,-152.0506,-180.0348,160.232,136.1785,115.1201,91.52081,67.96786,62.07042,42.4165,15.37606,-4.3729,-28.4354,-49.46777,-72.65849,-96.84827
2039000000.0,-132.1543,-151.7431,-179.6058,160.6878,136.873,115.7829,92.15366,68.44209,62.28891,42.73798,15.73554,-3.83766,-27.84396,-48.90401,-71.94262,-96.34071
2040000000.0,-131.9693,-151.4749,-179.3719,161.041,137.3017,116.1682,92.46713,68.78113,62.28979,42.89239,15.74176,-3.700369,-27.50426,-48.47876,-71.74915,-96.04883
2041000000.0,-131.6705,-151.1963,-179.0564,161.4202,137.991,116.715,93.02911,69.26194,62.53976,43.15153,16.19302,-3.207096,-26.89523,-47.97248,-71.28661,-95.64171
2042000000.0,-131.5551,-151.047,-178.9544,161.4697,138.1706,116.9237,93.24499,69.55858,62.64669,43.21584,16.42644,-3.107893,-26.74437,-47.72296,-71.10923,-95.53432
2043000000.0,-131.5546,-151.0931,-178.7914,161.6479,138.4391,117.2555,93.41786,69.68788,62.56681,43.16037,16.36965,-3.04175,-26.57349,-47.66953,-71.04431,-95.49072
2044000000.0,-131.6352,-151.0782,-178.8298,161.8087,138.5645,117.3377,93.48609,69.76331,62.57459,43.23304,16.36648,-2.948784,-26.49315,-47.51179,-71.08369,-95.37764
2045000000.0,-131.6294,-151.1376,-178.7099,161.7395,138.4705,117.3376,93.4947,69.63689,62.37042,43.0406,16.46557,-3.011883,-26.38896,-47.592,-71.1472,-95.5517
2046000000.0,-131.7816,-151.2419,-178.7301,161.8169,138.5359,117.3605,93.38848,69.58867,62.2696,42.98955,16.4279,-3.084943,-26.58762,-47.68279,-71.35106,-95.66935
2047000000.0,-132.0416,-151.4829,-178.9396,161.5356,138.2534,117.1354,92.9757,69.40187,62.03357,42.55849,16.20432,-3.313333,-26.76358,-47.96037,-71.74648,-95.88585
2048000000.0,-132.1357,-151.7779,-179.0748,161.3361,138.0273,116.8768,92.75203,69.04928,61.68199,42.33959,15.9457,-3.600789,-27.17522,-48.3856,-72.0721,-96.22423
2049000000.0,-132.6871,-152.3174,-179.3691,160.9577,137.5018,116.3268,92.15508,68.53284,61.17814,41.72213,15.61431,-4.071328,-27.92948,-48.93258,-72.77137,-96.88142
2050000000.0,-133.1972,-152.7684,-179.8501,160.4173,136.9368,115.8067,91.4617,67.88643,60.65041,41.3134,15.15462,-4.573513,-28.43833,-49.49413,-73.50501,-97.3802
2051000000.0,-133.6733,-153.3992,-180.2491,159.8911,136.2271,115.1606,90.68625,67.34747,60.20831,40.68822,14.71474,-5.076736,-29.2458,-50.20818,-74.28253,-98.22443
2052000000.0,-134.3019,-154.0034,-180.7598,159.3864,135.5469,114.385,89.88945,66.45381,59.59233,40.02623,14.05774,-5.828255,-30.11704,-51.0819,-75.23286,-98.97685
2053000000.0,-135.0081,-154.7795,-181.4605,158.6068,134.5496,113.4918,88.92829,65.66503,58.89845,39.21357,13.47022,-6.570636,-31.02111,-52.07985,-76.30231,-99.9149
2054000000.0,-135.7787,-155.5252,-182.1631,157.6628,133.4238,112.5184,87.71561,64.66372,57.97696,38.28648,12.6907,-7.615786,-32.22356,-53.15831,-77.49905,-100.959
2055000000.0,-136.5767,-156.256,-182.7776,156.9677,132.414,111.5118,86.68948,63.7549,57.23352,37.6353,11.85081,-8.285096,-33.21872,-54.19595,-78.52963,-101.8922
2056000000.0,-137.1375,-156.9947,-183.4091,156.285,131.4239,110.6026,85.85908,62.93217,56.5567,36.81968,11.22495,-9.063601,-34.27624,-55.1771,-79.48842,-102.754
2057000000.0,-137.994,-157.8152,-184.2136,155.4369,130.4299,109.5179,84.63551,61.81089,55.81766,36.07068,10.35663,-10.00101,-35.47259,-56.19005,-80.64166,-103.8243
2058000000.0,-138.8151,-158.6486,-185.1483,154.4191,129.189,108.3963,83.51959,60.79808,54.78399,35.09586,9.517397,-11.04758,-36.65474,-57.59214,-81.80423,-104.9297
2059000000.0,-139.5815,-159.6202,-185.9283,153.5909,128.0438,107.3072,82.41049,59.86105,53.98109,34.16004,8.600798,-12.0435,-37.82237,-58.58333,-83.12698,-105.9241
2060000000.0,-140.1941,-160.2052,-186.4669,152.7643,127.1412,106.4109,81.59397,59.03762,53.34287,33.36528,7.938161,-12.84497,-38.90278,-59.54564,-83.98569,-106.7323
2061000000.0,-141.2191,-161.2784,-187.6596,151.6323,125.9684,105.1817,80.44483,57.92128,52.31905,32.31442,6.745737,-14.06425,-40.16993,-60.7519,-85.2914,-107.8993
2062000000.0,-141.8446,-161.8941,-188.3026,151.0275,125.1988,104.4283,79.73367,57.22734,51.72173,31.73997,6.077915,-14.76325,-41.00198,-61.6377,-85.86378,-108.5457
2063000000.0,-142.507,-162.6528,-188.9924,150.1687,124.3691,103.6054,78.93154,56.55259,50.96947,30.94472,5.334564,-15.64739,-41.81603,-62.56295,-86.65849,-109.3912
2064000000.0,-143.0953,-163.1722,-189.7262,149.6653,123.621,102.9292,78.2224,55.85926,50.33863,30.21689,4.607795,-16.25099,-42.78216,-63.22485,-87.40971,-110.0917
2065000000.0,-143.7603,-163.8376,-190.3581,148.8825,122.839,102.2434,77.59873,55.31228,49.67937,29.6139,3.823988,-17.11802,-43.45685,-64.08191,-88.15659,-110.7358
2066000000.0,-144.2716,-164.2541,-190.9347,148.3981,122.3073,101.6955,77.20325,54.72792,49.18853,29.11926,3.126403,-17.60072,-43.96634,-64.59843,-88.49838,-111.2409
2067000000.0,-144.5471,-164.5688,-191.3396,147.9918,122.0569,101.2965,76.88655,54.53149,48.74544,28.70619,2.872337,-18.17032,-44.5026,-65.00806,-88.92593,-111.5967
2068000000.0,-145.0301,-165.0932,-191.7903,147.4673,121.5527,100.7822,76.50416,54.02298,48.22661,28.09812,2.219076,-18.67077,-44.95277,-65.48354,-89.28738,-112.0405
2069000000.0,-145.2416,-165.2705,-192.0815,147.2012,121.3525,100.5544,76.34441,53.8419,47.80167,27.79738,1.898147,-18.97647,-45.20315,-65.70564,-89.56155,-112.3522
2070000000.0,-145.4944,-165.4989,-192.3301,146.9971,121.1856,100.5159,76.34032,53.83326,47.61818,27.64961,1.455989,-19.31065,-45.33157,-65.94517,-89.4549,-112.3769
2071000000.0,-145.7204,-165.6708,-192.5757,146.8389,121.2397,100.3041,76.34426,53.73659,47.37724,27.36102,1.121313,-19.58727,-45.48195,-65.97852,-89.63647,-112.4643
2072000000.0,-145.747,-165.6593,-192.6721,146.7301,121.2235,100.355,76.47092,53.76071,47.2041,27.25994,0.9622264,-19.69821,-45.3276,-66.04592,-89.44841,-112.4158
2073000000.0,-145.8305,-165.668,-192.8748,146.6395,121.4162,100.444,76.76573,53.95203,47.14516,27.21209,0.8492931,-19.74347,-45.19437,-65.99384,-89.33621,-112.401
2074000000.0,-145.7671,-165.6697,-192.9058,146.7321,121.6337,100.7442,76.94506,54.25049,47.01963,27.10998,0.6148453,-19.72653,-45.09145,-65.72428,-89.02068,-112.1838
2075000000.0,-145.756,-165.4807,-192.8473,146.8289,121.9096,101.0807,77.38631,54.61591,47.12633,27.24863,0.7771791,-19.59617,-44.76411,-65.57012,-88.60798,-111.8351
2076000000.0,-145.4736,-165.2013,-192.7394,147.1774,122.5035,101.4819,78.00224,54.92996,47.25305,27.53396,0.8478954,-19.5172,-44.25998,-65.06435,-88.20734,-111.4803
2077000000.0,-145.2589,-164.9459,-192.3502,147.5185,123.0523,102.0476,78.56578,55.54739,47.49271,27.66603,1.175753,-18.93128,-43.67476,-64.57107,-87.55403,-110.9727
2078000000.0,-145.0875,-164.7959,-192.3534,147.7172,123.567,102.5735,79.12933,55.81789,47.54899,27.81335,1.131483,-18.82155,-43.20028,-64.12843,-87.17484,-110.6319
2079000000.0,-145.0331,-164.7469,-192.2615,147.9281,123.9704,102.9166,79.48574,56.14079,47.59271,27.77407,1.210264,-18.67153,-42.85418,-63.75111,-86.71874,-110.4352
2080000000.0,-144.7323,-164.3789,-191.8463,148.3592,124.6697,103.5487,80.16254,56.80069,47.78379,28.20454,1.460881,-18.36904,-42.18935,-63.27322,-86.13811,-109.8508
2081000000.0,-144.4659,-164.2307,-191.6259,148.6301,125.2111,103.9697,80.54134,57.09315,47.9398,28.29681,1.55089,-18.0871,-41.8807,-62.84227,-85.71829,-109.6969
2082000000.0,-144.3256,-163.9382,-191.3359,149.0711,125.8259,104.5726,81.24439,57.61342,48.13293,28.41912,1.794661,-17.6729,-41.26189,-62.30084,-85.22607,-109.2728
2083000000.0,-144.1122,-163.7597,-191.099,149.2765,126.2009,105.0736,81.59708,57.93581,48.17759,28.71527,1.947079,-17.54566,-40.78993,-61.79849,-84.97118,-108.8829
2084000000.0,-143.9795,-163.523,-190.8174,149.6048,126.7577,105.4873,82.00517,58.3129,48.34322,28.80107,2.268246,-17.21594,-40.3601,-61.44306,-84.47868,-108.5365
2085000000.0,-143.8717,-163.5489,-190.7554,149.7726,127.0485,105.7587,82.17484,58.44247,48.38382,28.90363,2.478204,-16.93347,-40.05335,-61.30014,-84.44429,-108.4948
2086000000.0,-143.9975,-163.5497,-190.6774,149.8598,127.0806,105.7718,82.24928,58.54821,48.23098,28.71776,2.353055,-17.01965,-40.06859,-61.26545,-84.40939,-108.547
2087000000.0,-144.0855,-163.588,-190.6591,149.8633,127.2832,105.9068,82.23437,58.51685,48.16294,28.66361,2.428789,-17.04327,-39.94841,-61.10912,-84.44714,-108.5277
2088000000.0,-143.9393,-163.6066,-190.5271,149.9451,127.3331,106.0915,82.24934,58.62498,48.21131,28.68163,2.493832,-16.96136,-40.00277,-61.083,-84.47157,-108.5144
2089000000.0,-144.1677,-163.6954,-190.6761,149.8383,127.1896,105.9258,82.12053,58.39153,47.89362,28.41597,2.478295,-17.08687,-40.08399,-61.27577,-84.60697,-108.6802
2090000000.0,-144.4226,-163.9783,-190.8178,149.6314,126.8071,105.6291,81.7602,58.14255,47.61071,28.14471,2.179697,-17.40165,-40.44504,-61.5818,-85.09872,-109.1074
2091000000.0,-144.7074,-164.3871,-190.9205,149.367,126.6096,105.3492,81.35427,57.72681,47.27764,27.75353,1.852793,-17.7746,-40.89394,-62.08123,-85.63956,-109.4269
2092000000.0,-145.1726,-164.7589,-191.3589,148.9469,126.0908,104.9466,80.77129,57.34404,46.87944,27.32673,1.596697,-18.18347,-41.40271,-62.51051,-86.2828,-109.9136
2093000000.0,-145.3278,-165.1506,-191.5087,148.7349,125.6712,104.5909,80.36215,56.91697,46.47494,26.92004,1.320104,-18.47213,-41.80497,-62.95897,-86.64265,-110.5054
2094000000.0,-145.9523,-165.6279,-191.9741,148.0813,124.996,103.8586,79.54056,56.29734,45.8806,26.35715,0.8277988,-19.05871,-42.60501,-63.71222,-87.53821,-111.1684
2095000000.0,-146.5903,-166.3753,-192.6496,147.4032,124.0331,103.0578,78.69278,55.29708,45.25993,25.62511,0.0970735,-19.73147,-43.60167,-64.57388,-88.51591,-111.999
2096000000.0,-147.2072,-167.117,-193.0975,146.7672,123.1936,102.2173,77.71286,54.54401,44.58295,24.8716,-0.56005,-20.46133,-44.57304,-65.44566,-89.45425,-112.8471
2097000000.0,-147.8374,-167.6273,-193.677,146.1187,122.4666,101.4922,76.90393,53.86378,43.91409,24.30938,-0.9759262,-21.14749,-45.39954,-66.21285,-90.40132,-113.6831
2098000000.0,-148.3156,-168.2491,-194.2283,145.5341,121.5445,100.6011,75.93179,53.00975,43.37367,23.67644,-1.647697,-21.93817,-46.28707,-67.16836,-91.42386,-114.6106
2099000000.0,-149.0312,-168.9776,-194.9161,144.7614,120.592,99.54351,74.9484,52.09452,42.7029,22.8689,-2.211899,-22.66993,-47.27273,-68.23956,-92.513,-115.4341
2100000000.0,-149.8107,-169.8826,-195.6498,143.9512,119.4942,98.55783,73.83896,51.10351,41.77127,22.00856,-3.085375,-23.58406,-48.54333,-69.31699,-93.53843,-116.435
2101000000.0,-150.5441,-170.6016,-196.3326,143.0572,118.4849,97.55635,72.91438,50.24663,41.04807,21.17775,-3.863428,-24.41799,-49.55792,-70.35092,-94.65194,-117.3629
2102000000.0,-151.3386,-171.3293,-197.0819,142.2444,117.4747,96.55573,71.91997,49.34222,40.24382,20.38647,-4.765304,-25.23389,-50.7322,-71.45685,-95.67125,-118.3327
2103000000.0,-151.904,-171.99,-197.855,141.5156,116.5532,95.80387,71.08751,48.46578,39.63384,19.73663,-5.477459,-26.08956,-51.64978,-72.37082,-96.54546,-119.1949
2104000000.0,-152.6731,-172.694,-198.4909,140.7202,115.6323,94.81781,70.20586,47.83823,38.97629,18.90428,-6.186038,-26.95698,-52.62135,-73.24509,-97.32447,-120.0924
2105000000.0,-153.3778,-173.5002,-199.3188,139.8326,114.6092,93.83958,69.27727,46.99509,38.16164,18.16962,-7.012185,-27.8487,-53.63529,-74.27198,-98.2963,-120.9126
2106000000.0,-153.789,-173.9682,-199.7498,139.3457,113.9861,93.29344,68.6958,46.49299,37.69274,17.73866,-7.589746,-28.54012,-54.2686,-74.96872,-98.95666,-121.4955
2107000000.0,-154.3697,-174.6081,-200.4724,138.624,113.2249,92.50156,68.07747,45.62261,36.94062,17.01799,-8.404741,-29.18285,-55.19075,-75.76903,-99.59887,-122.1394
2108000000.0,-154.7311,-174.954,-200.8653,138.173,112.7663,92.0673,67.64211,45.20735,36.50705,16.53553,-8.776073,-29.67238,-55.65392,-76.2403,-100.1255,-122.4914
2109000000.0,-155.3665,-175.5936,-201.6656,137.4725,112.0917,91.30742,67.06408,44.63559,35.81877,15.86924,-9.68561,-30.4688,-56.38825,-76.97188,-100.7702,-123.1937
2110000000.0,-155.8092,-175.9461,-202.0228,137.0996,111.7274,90.98486,66.73277,44.36607,35.42765,15.46906,-10.08546,-30.95624,-56.77892,-77.47922,-101.0641,-123.648
2111000000.0,-156.1057,-176.3515,-202.4637,136.6892,111.3556,90.52788,66.43932,43.97811,34.99269,15.00064,-10.50964,-31.36737,-57.14543,-77.72301,-101.3737,-123.9635
2112000000.0,-156.4344,-176.5266,-202.8276,136.4947,111.1792,90.23094,66.26306,43.76368,34.72427,14.7116,-10.9654,-31.68929,-57.52725,-77.98223,-101.6694,-124.2659
2113000000.0,-156.6248,-176.7878,-203.0779,136.1522,111.0798,90.1647,66.14104,43.67807,34.47195,14.45726,-11.40487,-32.03933,-57.73081,-78.36185,-101.7349,-124.3775
2114000000.0,-156.8088,-176.9926,-203.3622,135.9696,110.8558,90.11515,66.27226,43.58236,34.16571,14.15611,-11.53049,-32.17773,-57.74256,-78.4169,-101.726,-124.4801
2115000000.0,-156.974,-176.9786,-203.5529,135.9516,111.0544,90.19081,66.42788,43.73132,34.02968,14.16912,-11.76464,-32.2843,-57.69635,-78.4058,-101.6221,-124.3487
2116000000.0,-157.1084,-177.1272,-203.6993,135.7628,111.0754,90.18856,66.45821,43.74428,33.85676,13.93143,-12.06596,-32.62532,-57.73624,-78.44769,-101.6205,-124.3977
2117000000.0,-156.9707,-176.9556,-203.6311,136.003,111.5172,90.54143,66.87937,43.9453,33.92123,14.11594,-12.06105,-32.50544,-57.3698,-78.16866,-101.1851,-124.1025
2118000000.0,-156.8936,-176.836,-203.6285,135.9462,111.6415,90.72565,67.23151,44.27569,33.90302,13.94815,-12.12075,-32.33637,-57.25246,-77.9327,-100.932,-124.0552
2119000000.0,-156.7878,-176.7164,-203.4433,136.3323,112.2548,91.09119,67.72283,44.68332,33.95886,14.15278,-12.06057,-32.18033,-56.66845,-77.44176,-100.3831,-123.5372
