"Freq [GHz]","dB(S(1,1)) []"
1,-1.74502325476356
1.0007272727273,-1.74510634177831
1.0014545454546,-1.74518852359729
1.0021818181819,-1.74526980679829
1.0029090909092,-1.74535019799017
1.0036363636365,-1.74542970381259
1.0043636363638,-1.74550833093577
1.0050909090911,-1.74558608606024
1.0058181818184,-1.74566297591656
1.0065454545457,-1.74573900726512
1.007272727273,-1.74581418689583
1.0080000000003,-1.74588852162788
1.0087272727276,-1.7459620183095
1.0094545454549,-1.74603468381765
1.0101818181822,-1.74610652505781
1.0109090909095,-1.74617754896368
1.0116363636368,-1.74624776249693
1.0123636363641,-1.74631717264692
1.0130909090914,-1.74638578643044
1.0138181818187,-1.74645361089142
1.014545454546,-1.74652065310069
1.0152727272733,-1.74658692015569
1.0160000000006,-1.74665241918018
1.0167272727279,-1.74671715732397
1.0174545454552,-1.74678114176266
1.0181818181825,-1.74684437969733
1.0189090909098,-1.74690687835429
1.0196363636371,-1.74696864498478
1.0203636363644,-1.74702968686466
1.0210909090917,-1.74709001129418
1.021818181819,-1.74714962559765
1.0225454545463,-1.74720853712317
1.0232727272736,-1.74726675324231
1.0240000000009,-1.74732428134987
1.0247272727282,-1.74738112886355
1.0254545454555,-1.74743730322366
1.0261818181828,-1.74749281189284
1.0269090909101,-1.74754766235574
1.0276363636374,-1.74760186211874
1.0283636363647,-1.74765541870964
1.029090909092,-1.74770833967737
1.0298181818193,-1.74776063259169
1.0305454545466,-1.74781230504286
1.0312727272739,-1.74786336464137
1.0320000000012,-1.7479138190176
1.0327272727285,-1.74796367582157
1.0334545454558,-1.74801294272255
1.0341818181831,-1.74806162740881
1.0349090909104,-1.74810973758732
1.0356363636377,-1.74815728098337
1.036363636365,-1.74820426534035
1.0370909090923,-1.74825069841933
1.0378181818196,-1.74829658799884
1.0385454545469,-1.74834194187452
1.0392727272742,-1.74838676785877
1.0400000000015,-1.74843107378048
1.0407272727288,-1.7484748674847
1.0414545454561,-1.74851815683229
1.0421818181834,-1.74856094969964
1.0429090909107,-1.74860325397832
1.043636363638,-1.74864507757476
1.0443636363653,-1.74868642840994
1.0450909090926,-1.74872731441906
1.0458181818199,-1.74876774355121
1.0465454545472,-1.74880772376902
1.0472727272745,-1.7488472630484
1.0480000000018,-1.74888636937813
1.0487272727291,-1.74892505075959
1.0494545454564,-1.7489633152064
1.0501818181837,-1.7490011707441
1.050909090911,-1.74903862540981
1.0516363636383,-1.74907568725191
1.0523636363656,-1.74911236432969
1.0530909090929,-1.74914866471303
1.0538181818202,-1.74918459648207
1.0545454545475,-1.74922016772684
1.0552727272748,-1.74925538654696
1.0560000000021,-1.7492902610513
1.0567272727294,-1.74932479935762
1.0574545454567,-1.74935900959224
1.058181818184,-1.74939289988973
1.0589090909113,-1.74942647839251
1.0596363636386,-1.74945975325056
1.0603636363659,-1.74949273262107
1.0610909090932,-1.74952542466809
1.0618181818205,-1.74955783756218
1.0625454545478,-1.74958997948008
1.0632727272751,-1.74962185860438
1.0640000000024,-1.74965348312312
1.0647272727297,-1.74968486122953
1.065454545457,-1.74971600112162
1.0661818181843,-1.74974691100186
1.0669090909116,-1.74977759907681
1.0676363636389,-1.74980807355682
1.0683636363662,-1.74983834265565
1.0690909090935,-1.74986841459013
1.0698181818208,-1.7498982975798
1.0705454545481,-1.74992799984659
1.0712727272754,-1.74995752961445
1.0720000000027,-1.74998689510902
1.07272727273,-1.75001610455726
1.0734545454573,-1.7500451661871
1.0741818181846,-1.75007408822713
1.0749090909119,-1.75010287890619
1.0756363636392,-1.75013154645309
1.0763636363665,-1.75016009909618
1.0770909090938,-1.75018854506308
1.0778181818211,-1.75021689258028
1.0785454545484,-1.75024514987279
1.0792727272757,-1.75027332516382
1.080000000003,-1.7503014266744
1.0807272727303,-1.75032946262302
1.0814545454576,-1.75035744122535
1.0821818181849,-1.75038537069379
1.0829090909122,-1.75041325923718
1.0836363636395,-1.75044111506045
1.0843636363668,-1.75046894636423
1.0850909090941,-1.75049676134455
1.0858181818214,-1.75052456819243
1.0865454545487,-1.75055237509358
1.087272727276,-1.75058019022804
1.0880000000033,-1.75060802176978
1.0887272727306,-1.75063587788643
1.0894545454579,-1.75066376673886
1.0901818181852,-1.75069169648085
1.0909090909125,-1.75071967525878
1.0916363636398,-1.75074771121121
1.0923636363671,-1.75077581246857
1.0930909090944,-1.75080398715282
1.0938181818217,-1.75083224337706
1.094545454549,-1.75086058924521
1.0952727272763,-1.75088903285168
1.0960000000036,-1.75091758228097
1.0967272727309,-1.75094624560735
1.0974545454582,-1.7509750308945
1.0981818181855,-1.75100394619518
1.0989090909128,-1.75103299955088
1.0996363636401,-1.75106219899145
1.1003636363674,-1.75109155253476
1.1010909090947,-1.75112106818638
1.101818181822,-1.75115075393919
1.1025454545493,-1.75118061777307
1.1032727272766,-1.75121066765454
1.1040000000039,-1.75124091153641
1.1047272727312,-1.75127135735744
1.1054545454585,-1.751302013042
1.1061818181858,-1.75133288649972
1.1069090909131,-1.75136398562515
1.1076363636404,-1.75139531829743
1.1083636363677,-1.75142689237991
1.109090909095,-1.75145871571984
1.1098181818223,-1.75149079614803
1.1105454545496,-1.75152314147849
1.1112727272769,-1.75155575950811
1.1120000000042,-1.75158865801631
1.1127272727315,-1.75162184476471
1.1134545454588,-1.75165532749676
1.1141818181861,-1.75168911393744
1.1149090909134,-1.75172321179294
1.1156363636407,-1.75175762875027
1.116363636368,-1.75179237247693
1.1170909090953,-1.75182745062066
1.1178181818226,-1.75186287080896
1.1185454545499,-1.75189864064892
1.1192727272772,-1.75193476772676
1.1200000000045,-1.75197125960756
1.1207272727318,-1.75200812383493
1.1214545454591,-1.75204536793064
1.1221818181864,-1.75208299939436
1.1229090909137,-1.75212102570324
1.123636363641,-1.7521594543117
1.1243636363683,-1.75219829265097
1.1250909090956,-1.7522375481289
1.1258181818229,-1.75227722812952
1.1265454545502,-1.75231734001279
1.1272727272775,-1.75235789111427
1.1280000000048,-1.75239888874476
1.1287272727321,-1.75244034019003
1.1294545454594,-1.75248225271044
1.1301818181867,-1.7525246335407
1.130909090914,-1.75256748988949
1.1316363636413,-1.75261082893917
1.1323636363686,-1.75265465784546
1.1330909090959,-1.75269898373715
1.1338181818232,-1.75274381371573
1.1345454545505,-1.75278915485515
1.1352727272778,-1.75283501420145
1.1360000000051,-1.75288139877248
1.1367272727324,-1.75292831555762
1.1374545454597,-1.7529757715174
1.138181818187,-1.75302377358327
1.1389090909143,-1.75307232865723
1.1396363636416,-1.75312144361161
1.1403636363689,-1.75317112528867
1.1410909090962,-1.75322138050038
1.1418181818235,-1.75327221602808
1.1425454545508,-1.7533236386222
1.1432727272781,-1.75337565500195
1.1440000000054,-1.75342827185503
1.1447272727327,-1.75348149583736
1.14545454546,-1.75353533357274
1.1461818181873,-1.75358979165261
1.1469090909146,-1.7536448766357
1.1476363636419,-1.75370059504783
1.1483636363692,-1.75375695338154
1.1490909090965,-1.75381395809585
1.1498181818238,-1.75387161561594
1.1505454545511,-1.75392993233294
1.1512727272784,-1.75398891460355
1.1520000000057,-1.75404856874985
1.152727272733,-1.75410890105897
1.1534545454603,-1.75416991778282
1.1541818181876,-1.75423162513785
1.1549090909149,-1.75429402930473
1.1556363636422,-1.75435713642811
1.1563636363695,-1.75442095261634
1.1570909090968,-1.75448548394119
1.1578181818241,-1.75455073643762
1.1585454545514,-1.75461671610347
1.1592727272787,-1.75468342889923
1.160000000006,-1.75475088074776
1.1607272727333,-1.75481907753403
1.1614545454606,-1.75488802510489
1.1621818181879,-1.75495772926876
1.1629090909152,-1.75502819579544
1.1636363636425,-1.75509943041579
1.1643636363698,-1.75517143882154
1.1650909090971,-1.75524422666499
1.1658181818244,-1.7553177995588
1.1665454545517,-1.75539216307572
1.167272727279,-1.75546732274834
1.1680000000063,-1.75554328406889
1.1687272727336,-1.75562005248895
1.1694545454609,-1.75569763341922
1.1701818181882,-1.75577603222933
1.1709090909155,-1.75585525424752
1.1716363636428,-1.75593530476049
1.1723636363701,-1.75601618901312
1.1730909090974,-1.75609791220826
1.1738181818247,-1.75618047950647
1.174545454552,-1.75626389602585
1.1752727272793,-1.75634816684176
1.1760000000066,-1.75643329698664
1.1767272727339,-1.75651929144976
1.1774545454612,-1.75660615517701
1.1781818181885,-1.7566938930707
1.1789090909158,-1.75678250998932
1.1796363636431,-1.75687201074734
1.1803636363704,-1.756962400115
1.1810909090977,-1.75705368281811
1.181818181825,-1.75714586353783
1.1825454545523,-1.75723894691044
1.1832727272796,-1.75733293752722
1.1840000000069,-1.75742783993414
1.1847272727342,-1.75752365863176
1.1854545454615,-1.75762039807495
1.1861818181888,-1.75771806267278
1.1869090909161,-1.75781665678824
1.1876363636434,-1.75791618473813
1.1883636363707,-1.75801665079281
1.189090909098,-1.75811805917605
1.1898181818253,-1.75822041406484
1.1905454545526,-1.75832371958916
1.1912727272799,-1.75842797983191
1.1920000000072,-1.75853319882862
1.1927272727345,-1.75863938056732
1.1934545454618,-1.75874652898838
1.1941818181891,-1.75885464798432
1.1949090909164,-1.75896374139963
1.1956363636437,-1.75907381303065
1.196363636371,-1.75918486662535
1.1970909090983,-1.75929690588318
1.1978181818256,-1.75940993445494
1.1985454545529,-1.7595239559426
1.1992727272802,-1.75963897389913
1.2000000000075,-1.75975499182839
1.2007272727348,-1.75987201318491
1.2014545454621,-1.75999004137381
1.2021818181894,-1.76010907975062
1.2029090909167,-1.76022913162112
1.203636363644,-1.76035020024124
1.2043636363713,-1.76047228881688
1.2050909090986,-1.76059540050377
1.2058181818259,-1.7607195384074
1.2065454545532,-1.76084470558278
1.2072727272805,-1.7609709050344
1.2080000000078,-1.76109813971607
1.2087272727351,-1.76122641253076
1.2094545454624,-1.76135572633053
1.2101818181897,-1.76148608391636
1.210909090917,-1.76161748803809
1.2116363636443,-1.76174994139423
1.2123636363716,-1.76188344663189
1.2130909090989,-1.76201800634666
1.2138181818262,-1.7621536230825
1.2145454545535,-1.76229029933161
1.2152727272808,-1.76242803753436
1.2160000000081,-1.76256684007916
1.2167272727354,-1.76270670930237
1.2174545454627,-1.76284764748819
1.21818181819,-1.76298965686858
1.2189090909173,-1.76313273962315
1.2196363636446,-1.76327689787909
1.2203636363719,-1.76342213371105
1.2210909090992,-1.76356844914106
1.2218181818265,-1.76371584613848
1.2225454545538,-1.76386432661987
1.2232727272811,-1.76401389244895
1.2240000000084,-1.76416454543648
1.2247272727357,-1.76431628734022
1.225454545463,-1.76446911986487
1.2261818181903,-1.76462304466192
1.2269090909176,-1.7647780633297
1.2276363636449,-1.7649341774132
1.2283636363722,-1.7650913884041
1.2290909090995,-1.76524969774063
1.2298181818268,-1.76540910680758
1.2305454545541,-1.76556961693621
1.2312727272814,-1.76573122940418
1.2320000000087,-1.76589394543553
1.232727272736,-1.76605776620064
1.2334545454633,-1.76622269281613
1.2341818181906,-1.76638872634488
1.2349090909179,-1.76655586779596
1.2356363636452,-1.76672411812455
1.2363636363725,-1.76689347823199
1.2370909090998,-1.76706394896568
1.2378181818271,-1.76723553111907
1.2385454545544,-1.76740822543164
1.2392727272817,-1.76758203258884
1.240000000009,-1.76775695322212
1.2407272727363,-1.76793298790884
1.2414545454636,-1.76811013717231
1.2421818181909,-1.76828840148176
1.2429090909182,-1.7684677812523
1.2436363636455,-1.76864827684492
1.2443636363728,-1.76882988856649
1.2450909091001,-1.76901261666976
1.2458181818274,-1.76919646135332
1.2465454545547,-1.76938142276165
1.247272727282,-1.76956750098506
1.2480000000093,-1.76975469605974
1.2487272727366,-1.76994300796775
1.2494545454639,-1.77013243663702
1.2501818181912,-1.77032298194137
1.2509090909185,-1.77051464370052
1.2516363636458,-1.77070742168011
1.2523636363731,-1.77090131559168
1.2530909091004,-1.77109632509278
1.2538181818277,-1.77129244978687
1.254545454555,-1.77148968922346
1.2552727272823,-1.77168804289805
1.2560000000096,-1.77188751025222
1.2567272727369,-1.77208809067361
1.2574545454642,-1.77228978349602
1.2581818181915,-1.77249258799937
1.2589090909188,-1.7726965034098
1.2596363636461,-1.77290152889971
1.2603636363734,-1.77310766358773
1.2610909091007,-1.77331490653887
1.261818181828,-1.7735232567645
1.2625454545553,-1.77373271322243
1.2632727272826,-1.77394327481695
1.2640000000099,-1.77415494039891
1.2647272727372,-1.77436770876572
1.2654545454645,-1.7745815786615
1.2661818181918,-1.77479654877708
1.2669090909191,-1.77501261775007
1.2676363636464,-1.77522978416496
1.2683636363737,-1.77544804655315
1.269090909101,-1.77566740339309
1.2698181818283,-1.77588785311025
1.2705454545556,-1.77610939407731
1.2712727272829,-1.77633202461417
1.2720000000102,-1.77655574298805
1.2727272727375,-1.77678054741359
1.2734545454648,-1.77700643605292
1.2741818181921,-1.77723340701576
1.2749090909194,-1.7774614583595
1.2756363636467,-1.77769058808932
1.276363636374,-1.77792079415825
1.2770909091013,-1.77815207446732
1.2778181818286,-1.77838442686559
1.2785454545559,-1.77861784915035
1.2792727272832,-1.77885233906713
1.2800000000105,-1.77908789430987
1.2807272727378,-1.77932451252102
1.2814545454651,-1.77956219129164
1.2821818181924,-1.77980092816153
1.2829090909197,-1.78004072061932
1.283636363647,-1.78028156610265
1.2843636363743,-1.78052346199822
1.2850909091016,-1.78076640564199
1.2858181818289,-1.78101039431922
1.2865454545562,-1.78125542526469
1.2872727272835,-1.78150149566278
1.2880000000108,-1.7817486026476
1.2887272727381,-1.78199674330316
1.2894545454654,-1.78224591466348
1.2901818181927,-1.78249611371276
1.29090909092,-1.78274733738548
1.2916363636473,-1.78299958256659
1.2923636363746,-1.78325284609164
1.2930909091019,-1.78350712474692
1.2938181818292,-1.78376241526964
1.2945454545565,-1.78401871434804
1.2952727272838,-1.78427601862161
1.2960000000111,-1.78453432468118
1.2967272727384,-1.78479362906914
1.2974545454657,-1.78505392827957
1.298181818193,-1.7853152187584
1.2989090909203,-1.78557749690363
1.2996363636476,-1.78584075906542
1.3003636363749,-1.78610500154635
1.3010909091022,-1.7863702206015
1.3018181818295,-1.78663641243872
1.3025454545568,-1.78690357321874
1.3032727272841,-1.7871716990554
1.3040000000114,-1.78744078601577
1.3047272727387,-1.78771083012042
1.305454545466,-1.78798182734353
1.3061818181933,-1.78825377361313
1.3069090909206,-1.78852666481126
1.3076363636479,-1.78880049677419
1.3083636363752,-1.78907526529259
1.3090909091025,-1.78935096611175
1.3098181818298,-1.78962759493175
1.3105454545571,-1.78990514740773
1.3112727272844,-1.79018361914999
1.3120000000117,-1.79046300572428
1.312727272739,-1.79074330265199
1.3134545454663,-1.79102450541032
1.3141818181936,-1.79130660943255
1.3149090909209,-1.79158961010821
1.3156363636482,-1.79187350278332
1.3163636363755,-1.79215828276059
1.3170909091028,-1.79244394529967
1.3178181818301,-1.79273048561734
1.3185454545574,-1.79301789888773
1.3192727272847,-1.79330618024261
1.320000000012,-1.7935953247715
1.3207272727393,-1.79388532752203
1.3214545454666,-1.79417618350009
1.3221818181939,-1.79446788767008
1.3229090909212,-1.79476043495515
1.3236363636485,-1.79505382023744
1.3243636363758,-1.79534803835831
1.3250909091031,-1.79564308411861
1.3258181818304,-1.79593895227887
1.3265454545577,-1.79623563755959
1.327272727285,-1.79653313464148
1.3280000000123,-1.79683143816567
1.3287272727396,-1.79713054273403
1.3294545454669,-1.79743044290934
1.3301818181942,-1.79773113321561
1.3309090909215,-1.79803260813831
1.3316363636488,-1.79833486212463
1.3323636363761,-1.79863788958371
1.3330909091034,-1.79894168488695
1.3338181818307,-1.79924624236825
1.334545454558,-1.79955155632427
1.3352727272853,-1.79985762101471
1.3360000000126,-1.80016443066253
1.3367272727399,-1.8004719794543
1.3374545454672,-1.8007802615404
1.3381818181945,-1.80108927103532
1.3389090909218,-1.80139900201795
1.3396363636491,-1.80170944853183
1.3403636363764,-1.80202060458542
1.3410909091037,-1.80233246415242
1.341818181831,-1.80264502117201
1.3425454545583,-1.80295826954916
1.3432727272856,-1.80327220315488
1.3440000000129,-1.80358681582653
1.3447272727402,-1.80390210136813
1.3454545454675,-1.8042180535506
1.3461818181948,-1.80453466611206
1.3469090909221,-1.80485193275814
1.3476363636494,-1.80516984716228
1.3483636363767,-1.80548840296598
1.349090909104,-1.80580759377916
1.3498181818313,-1.80612741318038
1.3505454545586,-1.8064478547172
1.3512727272859,-1.80676891190646
1.3520000000132,-1.80709057823459
1.3527272727405,-1.80741284715787
1.3534545454678,-1.8077357121028
1.3541818181951,-1.80805916646634
1.3549090909224,-1.80838320361629
1.3556363636497,-1.80870781689152
1.356363636377,-1.80903299960232
1.3570909091043,-1.80935874503073
1.3578181818316,-1.80968504643081
1.3585454545589,-1.81001189702897
1.3592727272862,-1.81033929002427
1.3600000000135,-1.8106672185888
1.3607272727408,-1.81099567586791
1.3614545454681,-1.81132465498056
1.3621818181954,-1.81165414901967
1.3629090909227,-1.8119841510524
1.36363636365,-1.81231465412049
1.3643636363773,-1.81264565124057
1.3650909091046,-1.81297713540452
1.3658181818319,-1.81330909957973
1.3665454545592,-1.81364153670951
1.3672727272865,-1.81397443971334
1.3680000000138,-1.81430780148722
1.3687272727411,-1.81464161490405
1.3694545454684,-1.81497587281386
1.3701818181957,-1.81531056804427
1.370909090923,-1.8156456934007
1.3716363636503,-1.81598124166678
1.3723636363776,-1.81631720560464
1.3730909091049,-1.8166535779553
1.3738181818322,-1.81699035143893
1.3745454545595,-1.81732751875526
1.3752727272868,-1.81766507258387
1.3760000000141,-1.81800300558455
1.3767272727414,-1.81834131039764
1.3774545454687,-1.81867997964437
1.378181818196,-1.81901900592718
1.3789090909233,-1.81935838183009
1.3796363636506,-1.81969809991905
1.3803636363779,-1.82003815274222
1.3810909091052,-1.82037853283041
1.3818181818325,-1.82071923269737
1.3825454545598,-1.82106024484012
1.3832727272871,-1.82140156173932
1.3840000000144,-1.82174317585966
1.3847272727417,-1.82208507965011
1.385454545469,-1.82242726554436
1.3861818181963,-1.82276972596115
1.3869090909236,-1.82311245330455
1.3876363636509,-1.82345543996442
1.3883636363782,-1.82379867831669
1.3890909091055,-1.82414216072373
1.3898181818328,-1.82448587953469
1.3905454545601,-1.82482982708589
1.3912727272874,-1.82517399570114
1.3920000000147,-1.8255183776921
1.392727272742,-1.82586296535865
1.3934545454693,-1.82620775098922
1.3941818181966,-1.8265527268612
1.3949090909239,-1.8268978852412
1.3956363636512,-1.8272432183855
1.3963636363785,-1.82758871854039
1.3970909091058,-1.82793437794246
1.3978181818331,-1.82828018881905
1.3985454545604,-1.82862614338854
1.3992727272877,-1.82897223386075
1.400000000015,-1.82931845243727
1.4007272727423,-1.82966479131187
1.4014545454696,-1.83001124267077
1.4021818181969,-1.8303577986931
1.4029090909242,-1.83070445155117
1.4036363636515,-1.83105119341091
1.4043636363788,-1.8313980164322
1.4050909091061,-1.83174491276918
1.4058181818334,-1.8320918745707
1.4065454545607,-1.83243889398063
1.407272727288,-1.83278596313822
1.4080000000153,-1.83313307417847
1.4087272727426,-1.83348021923252
1.4094545454699,-1.83382739042795
1.4101818181972,-1.83417457988921
1.4109090909245,-1.83452177973793
1.4116363636518,-1.83486898209331
1.4123636363791,-1.83521617907246
1.4130909091064,-1.8355633627908
1.4138181818337,-1.83591052536239
1.414545454561,-1.83625765890028
1.4152727272883,-1.83660475551693
1.4160000000156,-1.83695180732453
1.4167272727429,-1.83729880643532
1.4174545454702,-1.83764574496206
1.4181818181975,-1.83799261501829
1.4189090909248,-1.83833940871877
1.4196363636521,-1.83868611817976
1.4203636363794,-1.83903273551946
1.4210909091067,-1.83937925285834
1.421818181834,-1.83972566231946
1.4225454545613,-1.84007195602891
1.4232727272886,-1.84041812611612
1.4240000000159,-1.84076416471421
1.4247272727432,-1.8411100639604
1.4254545454705,-1.84145581599631
1.4261818181978,-1.84180141296839
1.4269090909251,-1.8421468470282
1.4276363636524,-1.84249211033283
1.4283636363797,-1.84283719504522
1.429090909107,-1.84318209333455
